Time [s],Voltage [V],Current [A],Negative electrode potential [V],Positive electrode potential [V]
177097.1559,2.9731221,0,0.59319782,3.5663199
177097.2043,2.9730647,-7.89E-07,0.59315968,3.5662243
177097.2061,2.9658437,-0.127136579,0.59542584,3.5612695
177097.2063,2.96416,-1.149975915,0.59638786,3.5605478
177097.2065,2.9629288,-1.149969477,0.59690076,3.5598295
177097.2079,2.9618981,-1.149985875,0.59724432,3.5591424
177097.2145,2.9607337,-1.150008628,0.59753066,3.5582643
177097.2273,2.9596646,-1.150002015,0.59743524,3.5570998
177097.2537,2.9585574,-1.150009205,0.59754974,3.556107
177097.2821,2.9575074,-1.15000471,0.5974161,3.5549235
177097.3279,2.9564958,-1.150009402,0.59733975,3.5538354
177097.3871,2.9553695,-1.150008621,0.5971871,3.5525565
177097.4813,2.9543576,-1.150010362,0.59711075,3.5514684
177097.5963,2.9532695,-1.150008786,0.59711075,3.5503802
177097.7589,2.9522388,-1.150010455,0.5971489,3.5493877
177098.0201,2.9512269,-1.150012127,0.59716797,3.5483949
177098.3243,2.9502151,-1.150013852,0.59735888,3.547574
177098.8247,2.9492035,-1.150014838,0.59764516,3.5468488
177099.3813,2.9481728,-1.150018731,0.59781694,3.5459898
177100.1337,2.947161,-1.150019257,0.59833235,3.5454934
177100.9765,2.9461493,-1.150021707,0.59873313,3.5448825
177101.8587,2.9450996,-1.150023848,0.59917217,3.5442717
177102.8013,2.9439731,-1.15002382,0.59964937,3.5436225
177103.8329,2.9429615,-1.150027153,0.60005015,3.5430117
177104.7443,2.9419498,-1.150029249,0.60062277,3.5425727
177105.8603,2.9409189,-1.15003041,0.60121453,3.5421336
177106.8709,2.9398692,-1.150030555,0.60163444,3.5415037
177107.9881,2.9388576,-1.150029978,0.60235977,3.5412173
177109.0577,2.9378459,-1.150031612,0.60268426,3.5405302
177110.1731,2.9368343,-1.150032618,0.60342866,3.5402629
177111.3047,2.9357843,-1.150030534,0.6040585,3.5398428
177112.4017,2.9347725,-1.150033124,0.6045357,3.5393083
177113.5367,2.9337039,-1.150033255,0.60520375,3.5389075
177114.7557,2.932673,-1.150035687,0.60600543,3.5386784
177115.7851,2.9316039,-1.150037884,0.6065017,3.5381057
177117.0171,2.9305732,-1.150038649,0.60720795,3.5377812
177118.1883,2.9295425,-1.150036763,0.60789508,3.5374377
177119.3143,2.9284737,-1.150037432,0.60841042,3.5368841
177120.5739,2.9274237,-1.150038504,0.60925031,3.536674
177121.7691,2.9264121,-1.150037182,0.60988015,3.5362923
177122.8589,2.925324,-1.150038749,0.61056733,3.5358913
177124.2067,2.9243124,-1.150039699,0.61121625,3.5355287
177125.3949,2.9232626,-1.15003881,0.61196071,3.5352232
177126.6489,2.9222128,-1.150043623,0.6126669,3.5348797
177127.7451,2.9212012,-1.15004328,0.61335403,3.5345552
177128.9661,2.9201703,-1.150040599,0.614003,3.5341733
177130.2479,2.9191585,-1.150040218,0.61472833,3.5338869
177131.3915,2.9181089,-1.150040772,0.61564451,3.5337534
177132.6111,2.9170589,-1.150044806,0.61625534,3.5333142
177133.8583,2.9160473,-1.15004371,0.61705703,3.5331044
177135.0727,2.9149594,-1.150046144,0.61768687,3.5326462
177136.2285,2.9139285,-1.150044075,0.61854583,3.5324743
177137.4223,2.9128022,-1.150044058,0.61936659,3.5321689
177138.9213,2.9117906,-1.150047361,0.62007278,3.5318635
177140.1437,2.910779,-1.150043948,0.62095082,3.5317299
177141.3329,2.9097099,-1.150044963,0.62159979,3.5313098
177142.6293,2.9086411,-1.150046779,0.62236327,3.5310044
177143.8675,2.907496,-1.150046725,0.62324131,3.5307372
177145.1275,2.9064844,-1.150048091,0.62406206,3.5305464
177146.4569,2.9054346,-1.150048101,0.62488282,3.5303173
177147.6985,2.9043846,-1.150048767,0.6256845,3.5300691
177149.0091,2.9033728,-1.150048229,0.62652433,3.5298972
177150.1601,2.9023423,-1.150048402,0.62732601,3.5296683
177151.3887,2.9013307,-1.150047551,0.62812763,3.5294583
177152.6887,2.9003191,-1.150044457,0.62883389,3.5291529
177153.9061,2.8993073,-1.150045395,0.62963557,3.5289428
177155.0781,2.8982956,-1.150045674,0.63041812,3.5287137
177156.3467,2.897284,-1.150046016,0.63137251,3.5286565
177157.4957,2.8962531,-1.150046051,0.63209784,3.5283511
177158.8355,2.8952227,-1.150046552,0.63280404,3.5280266
177160.1085,2.8942108,-1.150047716,0.63370115,3.5279119
177161.1985,2.8931611,-1.150049847,0.63454098,3.5277021
177162.5949,2.8921494,-1.150049751,0.63534266,3.527492
177163.7681,2.8911376,-1.150047006,0.63620162,3.5273392
177165.1169,2.8901072,-1.150047449,0.63702238,3.5271294
177166.3661,2.8890572,-1.150045901,0.63801491,3.5270722
177167.6013,2.8880072,-1.150043858,0.63874024,3.5267475
177168.9131,2.8869958,-1.150048474,0.63952279,3.5265186
177170.0143,2.8859839,-1.150049774,0.64032447,3.5263085
177171.3767,2.8849533,-1.150051889,0.64122158,3.5261748
177172.6379,2.8839035,-1.150052887,0.64211869,3.5260222
177173.9517,2.8828344,-1.150050526,0.64307302,3.5259075
177175.2815,2.8818231,-1.150050232,0.64393198,3.5257549
177176.4869,2.8807921,-1.150049374,0.64473367,3.5255258
177177.7821,2.8797231,-1.15004716,0.64555442,3.5252776
177178.9603,2.8787117,-1.150048416,0.64656603,3.5252776
177180.3775,2.8776999,-1.150048486,0.64731044,3.5250103
177181.5651,2.8766885,-1.150050821,0.64818847,3.5248768
177182.9087,2.8756578,-1.150050275,0.64912373,3.5247815
177184.0911,2.8746459,-1.150050836,0.64992541,3.5245714
177185.3647,2.8736343,-1.150052372,0.65082252,3.5244567
177186.5021,2.8725655,-1.150050321,0.65166235,3.5242279
177187.9683,2.8715537,-1.150048737,0.65261674,3.5241704
177189.1703,2.870523,-1.150049067,0.65347564,3.5239987
177190.4855,2.8694923,-1.150051381,0.65431547,3.5238078
177191.7793,2.8684807,-1.150052356,0.65528893,3.5237696
177193.0905,2.8673162,-1.150049176,0.65628147,3.5235977
177194.5221,2.8663049,-1.15004942,0.65710223,3.523407
177195.8115,2.8652167,-1.150051093,0.65813297,3.5233498
177197.1781,2.8641667,-1.150052651,0.65910643,3.5232732
177198.4283,2.8631361,-1.150047633,0.65988898,3.523025
177199.7859,2.8621244,-1.150046519,0.66078609,3.5229106
177201.0379,2.8611131,-1.150047242,0.6616832,3.5227962
177202.3605,2.8600821,-1.150048539,0.66258031,3.5226624
177203.6319,2.8590324,-1.150048005,0.6635347,3.522567
177205.0611,2.8580015,-1.150047582,0.66446996,3.5224714
177206.2783,2.8569899,-1.150047176,0.66530979,3.5222998
177207.6635,2.8559403,-1.150049857,0.66630232,3.5222425
177208.9793,2.8549094,-1.150048686,0.66721851,3.5221279
177210.2965,2.8538597,-1.150049005,0.6680584,3.5219181
177211.6671,2.8528478,-1.150047074,0.66899365,3.5218415
177212.8931,2.8516836,-1.150047673,0.66990983,3.5215933
177214.4509,2.8506527,-1.150046731,0.67095965,3.5216124
177215.8667,2.8496413,-1.150048933,0.67187583,3.521517
177217.1491,2.8485916,-1.150051248,0.67281109,3.5214026
177218.5069,2.8475797,-1.150052024,0.67372733,3.521307
177219.9101,2.8465683,-1.150049746,0.67477709,3.5213454
177221.2407,2.8455374,-1.150048436,0.67559785,3.5211353
177222.6371,2.8444874,-1.15004918,0.67655224,3.5210397
177223.9277,2.8434758,-1.150047633,0.67748749,3.5209634
177225.3723,2.8424642,-1.150046218,0.67849916,3.5209634
177226.6731,2.8414338,-1.150049435,0.67935807,3.5207918
177228.0567,2.8404028,-1.15004966,0.68017882,3.5205817
177229.4635,2.8393912,-1.1500504,0.68122864,3.5206199
177230.9063,2.8383415,-1.150052583,0.68214482,3.5204864
177232.2351,2.8373296,-1.150050007,0.68311828,3.520448
177233.7545,2.8362989,-1.150048032,0.68411082,3.5204098
177235.1121,2.8352876,-1.150049156,0.68493158,3.5202191
177236.4547,2.8342757,-1.150049829,0.68586683,3.5201426
177237.9193,2.833226,-1.150049135,0.6868785,3.5201044
177239.2975,2.8321762,-1.150051961,0.68773741,3.5199137
177240.8617,2.8311646,-1.150051721,0.6888445,3.520009
177242.2647,2.8301146,-1.150053151,0.68974161,3.5198562
177243.8481,2.8290458,-1.150051442,0.69071501,3.5197608
177245.3043,2.8279769,-1.150050638,0.69172668,3.5197036
177246.8461,2.8269653,-1.150051025,0.69268101,3.5196464
177248.2699,2.8258965,-1.150050672,0.69373083,3.5196273
177249.8177,2.8247893,-1.150051111,0.69468522,3.5194745
177251.4397,2.8237586,-1.150050186,0.69573504,3.5194936
177252.9131,2.8227088,-1.150055215,0.69670844,3.5194173
177254.6283,2.8216782,-1.15005346,0.69770104,3.5193791
177256.0345,2.8206472,-1.150049639,0.69857901,3.5192263
177257.7133,2.8195975,-1.150050616,0.69959068,3.5191882
177259.3111,2.8185859,-1.150050036,0.70054501,3.5191309
177260.8923,2.8175743,-1.150048566,0.7016139,3.5191882
177262.2129,2.8165436,-1.150049292,0.70239651,3.51894
177263.9205,2.8155317,-1.150050712,0.70348448,3.5190163
177265.4551,2.8145201,-1.150052886,0.70445794,3.5189781
177267.1803,2.8135085,-1.150050902,0.70550776,3.5190163
177268.7717,2.8124588,-1.150050592,0.70642394,3.5188828
177270.3795,2.8114471,-1.150050441,0.70734012,3.5187874
177272.1249,2.810359,-1.150050862,0.7083708,3.5187299
177273.9177,2.8093476,-1.150050772,0.70932519,3.5186727
177275.5327,2.8082595,-1.150053575,0.71037501,3.5186346
177277.3883,2.8071907,-1.15005663,0.7114439,3.5186346
177279.1809,2.80616,-1.15005378,0.71251279,3.5186727
177280.9303,2.8051293,-1.150053685,0.71344805,3.5185773
177282.8049,2.8041177,-1.15005255,0.71447879,3.5185964
177284.5591,2.803087,-1.150052356,0.71550947,3.5185964
177286.2661,2.8020563,-1.150053666,0.71642572,3.518482
177288.2157,2.8010445,-1.150055053,0.71738005,3.5184245
177290.0125,2.8000138,-1.150051514,0.71829623,3.5183101
177292.0407,2.798964,-1.150051775,0.71936512,3.5183291
177293.7979,2.7979524,-1.150052336,0.72030044,3.5182528
177295.7083,2.7969217,-1.150050048,0.72129297,3.5182147
177297.6675,2.7959101,-1.150051442,0.72236186,3.5182719
177299.4853,2.7948601,-1.150054194,0.72320169,3.5180619
177301.5149,2.7938485,-1.150052777,0.72440422,3.5182528
177303.5541,2.7928178,-1.150051695,0.72524405,3.5180619
177305.5177,2.7918062,-1.150052708,0.72633201,3.5181382
177307.6067,2.7906418,-1.150053213,0.72726732,3.517909
177309.8831,2.7896113,-1.150052702,0.72831708,3.5179284
177311.8959,2.7885995,-1.15005523,0.72929054,3.51789
177314.0735,2.7874923,-1.150053695,0.73032129,3.5178137
177316.4123,2.7863853,-1.150053994,0.73139018,3.5177755
177318.3919,2.7853546,-1.150053759,0.73238271,3.5177374
177320.9031,2.784343,-1.150053302,0.73343253,3.5177755
177322.8231,2.7833314,-1.150053796,0.73440599,3.5177374
177325.1469,2.7823195,-1.150053095,0.73524582,3.5175655
177327.2169,2.7812698,-1.150052557,0.73631471,3.5175846
177329.5953,2.7802582,-1.150052561,0.73724997,3.5175083
177331.8541,2.7792087,-1.150050805,0.73826158,3.5174701
177333.9455,2.7781396,-1.150051958,0.73913962,3.5172791
177336.4399,2.7771282,-1.150050387,0.74022758,3.5173557
177338.6793,2.7761164,-1.150048984,0.74104834,3.5171647
177340.9305,2.7751048,-1.150049436,0.74200273,3.5171075
177343.3193,2.774055,-1.150048331,0.74309069,3.5171456
177345.7633,2.7730434,-1.150052679,0.74402601,3.5170693
177347.9741,2.7719362,-1.150052456,0.74494219,3.5168784
177350.4631,2.7708673,-1.150051592,0.74591565,3.516783
177352.7319,2.7698557,-1.15005346,0.74696541,3.5168211
177355.2194,2.7688439,-1.150053555,0.74784344,3.5166874
177357.5586,2.7677751,-1.150052868,0.74881691,3.516592
177360.0046,2.7667446,-1.150049872,0.74975216,3.5164967
177362.3402,2.7657328,-1.150051819,0.75072563,3.5164583
177364.6308,2.7647209,-1.150048531,0.75169909,3.5164201
177367.0476,2.7637095,-1.1500483,0.75263435,3.5163438
177369.3244,2.7626595,-1.150050377,0.75353146,3.516191
177371.83,2.7616098,-1.150049631,0.75448585,3.5160956
177374.1078,2.76056,-1.150050224,0.75536388,3.515924
177376.5722,2.759491,-1.150052634,0.75639457,3.5158856
177378.8634,2.7584794,-1.150053977,0.75734895,3.5158284
177381.296,2.7574677,-1.150054497,0.75824606,3.5157139
177383.633,2.7564561,-1.150051239,0.75916225,3.5156183
177385.9012,2.7554445,-1.15005191,0.76011664,3.5155611
177388.2106,2.7543948,-1.150050301,0.76101375,3.5154085
177390.4312,2.7533832,-1.150052694,0.7619108,3.5152938
177392.741,2.7523522,-1.150051939,0.76294154,3.5152938
177395.0358,2.7512836,-1.150051837,0.76383865,3.5151222
177397.3712,2.7502718,-1.150053546,0.76467848,3.5149503
177399.7946,2.7492411,-1.150052734,0.76569009,3.5149312
177401.933,2.7482104,-1.150056137,0.76668268,3.5148931
177404.3078,2.7471797,-1.150056443,0.76761794,3.5147977
177406.5406,2.7461679,-1.150053935,0.76849598,3.5146639
177408.8338,2.7451565,-1.15005204,0.76937395,3.5145304
177410.977,2.7441447,-1.150054359,0.77027106,3.5144157
177412.8854,2.7431331,-1.150055551,0.7711491,3.5142822
177415.1506,2.7421215,-1.150058178,0.77217978,3.5143013
177417.4782,2.7410908,-1.150055182,0.77313417,3.514225
177419.419,2.7400792,-1.150054999,0.77393585,3.514015
177421.729,2.7390485,-1.150054763,0.77498567,3.514034
177423.8746,2.7380366,-1.150055768,0.77578729,3.513824
177425.9954,2.7369487,-1.150055088,0.77677983,3.5137286
177428.3654,2.7359371,-1.15005294,0.77775329,3.5136905
177430.324,2.734868,-1.150052811,0.77863133,3.5134995
177432.6382,2.7338567,-1.150053301,0.77964294,3.5134995
177434.86,2.7328448,-1.150053303,0.7806164,3.5134614
177436.5178,2.7317951,-1.150055548,0.78149444,3.5132895
177438.9496,2.7307835,-1.150055187,0.78254426,3.5133276
177440.9968,2.7297719,-1.15005449,0.78330773,3.5130796
177443.0862,2.72876,-1.150054362,0.78428119,3.5130413
177445.1326,2.7277484,-1.150054189,0.78521645,3.512965
177446.9596,2.726737,-1.150055082,0.78609449,3.5128314
177449.1684,2.7257252,-1.150054665,0.78701067,3.5127358
177451.0814,2.7246945,-1.150053968,0.78798413,3.5126786
177453.226,2.7236638,-1.150053999,0.78899574,3.5126595
177455.1034,2.7226522,-1.150053803,0.78991193,3.5125642
177457.1764,2.7214878,-1.150053205,0.79086632,3.5123541
177459.3428,2.7204189,-1.150055566,0.7918207,3.5122397
177461.4182,2.7194071,-1.150055465,0.79277503,3.5121822
177463.2714,2.7183766,-1.150053853,0.7937485,3.512125
177465.2938,2.7173648,-1.150055466,0.79468381,3.5120487
177467.2802,2.7163534,-1.150056036,0.79565722,3.5120106
177469.2492,2.7153034,-1.150056811,0.79657346,3.5118768
177471.2638,2.7142537,-1.150056897,0.797566,3.5118196
177473.27,2.7132421,-1.150055388,0.7985394,3.5117815
177475.0562,2.7122304,-1.150054466,0.79941744,3.5116479
177477.0022,2.7112188,-1.150052887,0.80042905,3.5116479
177478.7564,2.7101307,-1.150052272,0.80128801,3.5114188
177480.7248,2.7090619,-1.150050425,0.8023569,3.5114188
177482.761,2.7080312,-1.150054832,0.80331129,3.5113425
177484.5748,2.7070003,-1.15005199,0.8043229,3.5113232
177486.4708,2.7059698,-1.150051207,0.80516273,3.5111325
177488.3332,2.7049201,-1.150052234,0.80613619,3.5110562
177490.2646,2.7039084,-1.150051011,0.8071478,3.5110562
177491.8324,2.7028966,-1.150052976,0.80804491,3.5109415
177493.8774,2.7018659,-1.150052803,0.80901837,3.5108843
177495.6604,2.7007971,-1.1500547,0.80999184,3.5107889
177497.6158,2.6997852,-1.150053597,0.81090802,3.5106933
177499.3214,2.6986973,-1.150052504,0.81191963,3.510617
177501.1728,2.6976857,-1.150051976,0.81281674,3.5105026
177503.039,2.6966357,-1.1500509,0.81382841,3.5104642
177504.5534,2.6955671,-1.150052274,0.81468731,3.5102544
177506.6298,2.694479,-1.150055007,0.8157562,3.5102353
177508.6108,2.6934481,-1.150052519,0.81672966,3.5101779
177510.2662,2.6924176,-1.150050679,0.81785583,3.5102735
177512.0888,2.6914058,-1.150050551,0.81867659,3.5100825
177513.8706,2.6902609,-1.150050591,0.81965005,3.5099108
177515.6924,2.68923,-1.150050895,0.82058531,3.5098152
177517.44,2.6882184,-1.150051874,0.82155877,3.5097771
177519.1466,2.6871877,-1.150049945,0.82262766,3.5098152
177520.7836,2.6861186,-1.150047432,0.82344842,3.509567
177522.5962,2.685107,-1.150047809,0.82449824,3.5096052
177524.1658,2.6840763,-1.150046816,0.82541442,3.5094907
177525.8054,2.6830456,-1.150048463,0.82636875,3.5094144
177527.6138,2.682034,-1.150049344,0.82745677,3.5094907
177529.2798,2.6810224,-1.150049474,0.82835382,3.5093763
177530.936,2.6800108,-1.150049077,0.82925093,3.5092616
177532.5884,2.6789036,-1.150050236,0.83028167,3.5091853
177534.33,2.677892,-1.150050174,0.83123606,3.5091281
177536.0882,2.676785,-1.150049928,0.83219039,3.5089753
177537.7954,2.6757734,-1.15004837,0.83327836,3.5090518
177539.3314,2.6747618,-1.150051071,0.83411825,3.5088799
177540.922,2.6736927,-1.150052174,0.83503443,3.5087271
177542.6482,2.6726239,-1.150049593,0.83604604,3.5086699
177544.37,2.6715932,-1.150049407,0.837134,3.5087271
177545.9438,2.6705432,-1.150052977,0.83810747,3.5086508
177547.6344,2.6694553,-1.150051799,0.83911914,3.5085745
177549.272,2.6684246,-1.150052427,0.84014982,3.5085745
177550.8622,2.6673555,-1.150055805,0.84104693,3.5084026
177552.5606,2.6662869,-1.150055768,0.84200132,3.5082881
177554.2122,2.665256,-1.15005493,0.84308928,3.5083454
177555.6022,2.6642256,-1.150054902,0.84396732,3.5081928
177557.3766,2.6631756,-1.150052477,0.84507436,3.50825
177558.8302,2.662164,-1.150052885,0.84585696,3.5080209
177560.441,2.6610951,-1.150053036,0.84694493,3.50804
177561.9924,2.6600451,-1.150053651,0.84791839,3.5079637
177563.5824,2.6590145,-1.150054513,0.84877729,3.5077918
177565.0488,2.6579647,-1.150055529,0.84982711,3.5077918
177566.6872,2.6569529,-1.150052959,0.85085785,3.5078108
177568.2406,2.6559415,-1.150051968,0.85171676,3.5076582
177569.7052,2.6548917,-1.150052044,0.85278565,3.5076773
177571.2358,2.6538608,-1.150052301,0.8537209,3.5075817
177572.7558,2.6528492,-1.15005262,0.85471344,3.5075626
177574.2812,2.6518376,-1.1500562,0.85559148,3.5074291
177575.734,2.6508069,-1.150055319,0.85654587,3.5073528
177577.2416,2.649776,-1.150054396,0.8575384,3.5073144
177578.6484,2.6486502,-1.15005221,0.85843551,3.5070856
177580.3186,2.6475811,-1.150053167,0.8596189,3.5072
177581.8084,2.6465313,-1.150053487,0.86055422,3.5070856
177583.3102,2.6455197,-1.150054783,0.86156583,3.5070856
177584.65,2.6445081,-1.150056748,0.86231023,3.5068183
177586.1508,2.6433818,-1.150059325,0.86347455,3.5068564
177587.7692,2.6423512,-1.150057819,0.86458164,3.5069327
177589.2322,2.6413014,-1.150056096,0.86547875,3.5067801
177590.772,2.6402898,-1.150055892,0.86654764,3.5068374
177592.0582,2.6392016,-1.150054064,0.86740655,3.5066082
177593.6708,2.6381903,-1.150055279,0.86832273,3.5065129
177595.09,2.6371784,-1.150055797,0.86941069,3.5065892
177596.468,2.6361477,-1.150055711,0.87046051,3.5066082
177597.9262,2.6351361,-1.150055423,0.87135762,3.5064938
177599.3832,2.6340671,-1.150053507,0.87236923,3.5064363
177600.7562,2.6330364,-1.15005366,0.87339997,3.5064363
177602.076,2.6320248,-1.15005228,0.8742398,3.5062647
177603.5798,2.6310134,-1.15005401,0.87519419,3.5062075
177604.9252,2.6299634,-1.150050501,0.87626308,3.5062265
177606.4096,2.6289327,-1.150051884,0.87733197,3.5062647
177607.786,2.6279209,-1.150053202,0.87821001,3.5061309
177609.1636,2.6269095,-1.150055755,0.87903076,3.5059402
177610.3998,2.6258788,-1.150054355,0.88011873,3.5059974
177611.8786,2.6248479,-1.15005221,0.88122576,3.5060737
177613.1588,2.6237984,-1.150050053,0.88214195,3.5059402
177614.5172,2.6227865,-1.15005185,0.8829627,3.5057492
177615.9468,2.6217365,-1.150048962,0.88405073,3.5057874
177617.3234,2.6206679,-1.150048758,0.88498598,3.5056539
177618.7914,2.6196182,-1.15004997,0.88599759,3.5056157
177620.1642,2.618587,-1.150054651,0.88700926,3.5055964
177621.4844,2.6175566,-1.150055313,0.88796359,3.5055201
177622.8618,2.6165259,-1.150052313,0.88887984,3.5054057
177624.1434,2.6154952,-1.150050007,0.88985324,3.5053484
177625.5624,2.6144452,-1.150051755,0.89099848,3.5054438
177626.847,2.6134338,-1.150052397,0.89189559,3.5053294
177628.1866,2.6124029,-1.150053409,0.89290726,3.5053101
177629.5596,2.6113913,-1.150053806,0.89378524,3.5051765
177630.7856,2.6103797,-1.150055182,0.89479691,3.5051765
177632.194,2.6093109,-1.150054149,0.89577031,3.5050812
177633.4832,2.6082993,-1.150055412,0.89674377,3.505043
177634.8122,2.6072683,-1.150053847,0.89773631,3.5050046
177636.0986,2.6061995,-1.150055189,0.89876705,3.5049665
177637.4274,2.6051688,-1.150056083,0.89974052,3.5049093
177638.7506,2.6041572,-1.150054738,0.9007712,3.5049284
177640.0468,2.6031456,-1.150053568,0.90163016,3.5047758
