Index,Time [s],Voltage [V],Current [A],Negative electrode potential [V],Positive electrode potential [V]
5455,83887.56,3.2509,5.00053406,0.7232,4.1247
5456,83887.92,3.2395,4.99977112,0.8359,4.0624
5457,83889,3.2288,4.99992371,0.8428,4.057
5458,83890.08,3.2216,5.00007629,0.8466,4.0533
5459,83890.8,3.2155,5.00007629,0.8494,4.0506
5460,83891.88,3.2099,5.00007629,0.8523,4.0479
5461,83892.96,3.2047,4.99977112,0.8544,4.0452
5462,83894.04,3.2,5.00007629,0.8566,4.0425
5463,83895.12,3.1951,5.00038147,0.8587,4.0398
5464,83895.84,3.1905,5.00022888,0.8612,4.0376
5465,83896.92,3.1861,5.00068665,0.8631,4.0346
5466,83898,3.1821,4.99992371,0.865,4.0325
5467,83899.08,3.1781,4.99977112,0.8669,4.0306
5468,83899.8,3.1739,4.99992371,0.8688,4.0288
5469,83900.88,3.1705,5.00007629,0.8704,4.0266
5470,83901.96,3.1664,5.00022888,0.8723,4.025
5471,83903.04,3.1629,5.00022888,0.8738,4.0228
5472,83904.12,3.1594,5.00022888,0.8758,4.0209
5473,83904.84,3.1559,4.99992371,0.8776,4.0188
5474,83905.92,3.1524,4.99977112,0.879,4.0171
5475,83907,3.1489,5.00022888,0.8806,4.0153
5476,83908.08,3.1456,5.00038147,0.8824,4.0139
5477,83908.8,3.1424,4.99992371,0.8839,4.0121
5478,83909.88,3.1389,4.99977112,0.8852,4.0107
5479,83910.96,3.1357,5.00007629,0.8867,4.0088
5480,83912.04,3.1327,5.00007629,0.8884,4.0074
5481,83913.12,3.1295,5.00068665,0.89,4.0051
5482,83913.84,3.1266,5.00053406,0.8911,4.0039
5483,83914.92,3.1235,4.99977112,0.8929,4.0026
5484,83916,3.1203,5.00007629,0.8943,4.001
5485,83917.08,3.1176,4.99992371,0.8957,3.9996
5486,83917.8,3.115,5.00022888,0.897,3.9981
5487,83918.88,3.1121,5.00007629,0.8983,3.9965
5488,83919.96,3.1092,5.00053406,0.8997,3.9951
5489,83921.04,3.1063,5.00022888,0.9011,3.9935
5490,83922.12,3.1037,5.00022888,0.9027,3.9922
5491,83922.84,3.1009,4.99961853,0.9038,3.9911
5492,83923.92,3.0983,5.00007629,0.9051,3.9897
5493,83925,3.0958,4.99961853,0.9061,3.9886
5494,83926.08,3.0932,5.00007629,0.9075,3.9872
5495,83926.8,3.0907,5.00007629,0.9088,3.986
5496,83927.88,3.0883,5.00022888,0.9099,3.9846
5497,83928.96,3.0855,5.00007629,0.911,3.9832
5498,83930.04,3.0832,5.00022888,0.9126,3.9819
5499,83931.12,3.0811,4.99992371,0.9135,3.9808
5500,83931.84,3.0784,5.00007629,0.9146,3.9797
5501,83932.92,3.0762,4.99992371,0.9159,3.9787
5502,83934,3.0736,5.00007629,0.917,3.9775
5503,83935.08,3.0715,5.00007629,0.918,3.9762
5504,83935.8,3.0692,5.00022888,0.9191,3.9749
5505,83936.88,3.0669,5.00038147,0.9204,3.9743
5506,83937.96,3.0651,5.00007629,0.9213,3.973
5507,83939.04,3.0626,4.99961853,0.9223,3.9719
5508,83940.12,3.0607,5.00007629,0.9234,3.9709
5509,83940.84,3.0587,5.00007629,0.9242,3.97
5510,83941.92,3.0565,5.00007629,0.9253,3.969
5511,83943,3.0547,4.99992371,0.9259,3.9682
5512,83944.08,3.0529,5.00007629,0.9271,3.9673
5513,83944.8,3.0506,4.99992371,0.9282,3.9662
5514,83945.88,3.0491,5.00022888,0.9294,3.965
5515,83946.96,3.0471,5.00007629,0.9301,3.9643
5516,83948.04,3.0452,4.99992371,0.931,3.9635
5517,83949.12,3.0434,5.00007629,0.9318,3.963
5518,83949.84,3.042,4.99977112,0.9333,3.9619
5519,83950.92,3.0401,5.00007629,0.9336,3.9611
5520,83952,3.0382,4.99977112,0.9344,3.9601
5521,83953.08,3.037,4.99992371,0.9353,3.9593
5522,83953.8,3.0353,4.99992371,0.9363,3.9587
5523,83954.88,3.0338,5.00007629,0.9368,3.9581
5524,83955.96,3.0324,5.00053406,0.9375,3.9574
5525,83957.04,3.0307,4.99977112,0.9383,3.9568
5526,83958.12,3.0294,5.00007629,0.939,3.9558
5527,83958.84,3.028,5.00038147,0.9396,3.9549
5528,83959.92,3.0266,4.99961853,0.9404,3.9546
5529,83961,3.0253,4.99977112,0.9412,3.9539
5530,83962.08,3.0242,5.00022888,0.9415,3.9531
5531,83962.8,3.0228,5.00022888,0.942,3.9526
5532,83963.88,3.0217,4.99977112,0.943,3.9523
5533,83964.96,3.0205,5.00007629,0.9439,3.9517
5534,83966.04,3.0192,5.00007629,0.9445,3.9512
5535,83967.12,3.0179,5.00022888,0.9453,3.9507
5536,83967.84,3.0169,4.99992371,0.946,3.9506
5537,83968.92,3.0156,4.99977112,0.9468,3.9503
5538,83970,3.0147,5.00007629,0.9473,3.9498
5539,83971.08,3.0135,4.99977112,0.9482,3.9491
5540,83971.8,3.0121,5.00022888,0.9487,3.949
5541,83972.88,3.0115,5.00022888,0.9492,3.9485
5542,83973.96,3.0101,5.00038147,0.95,3.9482
5543,83975.04,3.0092,5.00038147,0.9506,3.9479
5544,83976.12,3.0083,4.99992371,0.9509,3.9474
5545,83976.84,3.0072,5.00022888,0.9517,3.9469
5546,83977.92,3.006,4.99992371,0.9522,3.9466
5547,83979,3.0051,4.99992371,0.9528,3.9461
5548,83980.08,3.0039,4.99961853,0.9535,3.9453
5549,83980.8,3.003,4.99977112,0.9538,3.945
5550,83981.88,3.0022,5.00007629,0.9544,3.9447
5551,83982.96,3.0007,5.00007629,0.9549,3.9442
5552,83984.04,2.9999,4.99992371,0.9555,3.9437
5553,83985.12,2.999,5.00022888,0.956,3.9434
5554,83985.84,2.9981,5.00038147,0.9568,3.9428
5555,83986.92,2.997,5.00022888,0.9573,3.9425
5556,83988,2.9957,4.99992371,0.9577,3.942
5557,83989.08,2.9949,4.99992371,0.9584,3.9415
5558,83989.8,2.9937,5.00007629,0.9589,3.941
5559,83990.88,2.9929,5.00022888,0.9593,3.9406
5560,83991.96,2.9918,4.99977112,0.9598,3.9399
5561,83993.04,2.9906,5.00007629,0.9605,3.9398
5562,83994.12,2.9897,5.00007629,0.9611,3.9391
5563,83994.84,2.9888,5.00038147,0.9614,3.939
5564,83995.92,2.9876,5.00022888,0.9622,3.9383
5565,83997,2.9866,5.00007629,0.9627,3.938
5566,83998.08,2.9856,5.00007629,0.9632,3.9375
5567,83998.8,2.9847,4.99977112,0.9639,3.9371
5568,83999.88,2.9834,5.00007629,0.9646,3.9366
5569,84000.96,2.9825,4.99992371,0.9651,3.9363
5570,84002.04,2.9813,5.00007629,0.9655,3.9355
5571,84003.12,2.9804,5.00022888,0.9663,3.9351
5572,84003.84,2.9796,5.00007629,0.9668,3.9347
5573,84004.92,2.9783,5.00022888,0.9673,3.9342
5574,84006,2.9772,4.99961853,0.9678,3.9337
5575,84007.08,2.9761,4.99977112,0.9686,3.9332
5576,84007.8,2.9752,4.99977112,0.9689,3.9331
5577,84008.88,2.9741,5.00007629,0.9697,3.9324
5578,84009.96,2.9729,5.00053406,0.9702,3.9321
5579,84011.04,2.972,5.00022888,0.9709,3.9313
5580,84012.12,2.9709,4.99961853,0.9714,3.9312
5581,84012.84,2.9696,5.00053406,0.9722,3.9305
5582,84013.92,2.9686,5.00007629,0.9727,3.9302
5583,84015,2.9674,4.99992371,0.973,3.9297
5584,84016.08,2.9665,5.00007629,0.9738,3.9294
5585,84016.8,2.9653,5.00007629,0.9748,3.9291
5586,84017.88,2.9645,4.99992371,0.9751,3.9286
5587,84018.96,2.9633,4.99961853,0.9757,3.928
5588,84020.04,2.9621,4.99977112,0.9764,3.9275
5589,84021.12,2.9612,5.00022888,0.9772,3.9274
5590,84021.84,2.9598,4.99977112,0.9775,3.9267
5591,84022.92,2.959,5.00007629,0.9779,3.9262
5592,84024,2.9578,5.00022888,0.9787,3.9256
5593,84025.08,2.9567,4.99961853,0.9795,3.9254
5594,84025.8,2.9555,5.00007629,0.9802,3.9247
5595,84026.88,2.9546,4.99977112,0.9806,3.9245
5596,84027.96,2.9535,5.00022888,0.9813,3.9239
5597,84029.04,2.9526,5.00007629,0.9819,3.9235
5598,84030.12,2.9514,5.00022888,0.9826,3.9231
5599,84030.84,2.95,5.00022888,0.983,3.9226
5600,84031.92,2.9493,5.00007629,0.984,3.9219
5601,84033,2.9479,5.00007629,0.9845,3.9218
5602,84034.08,2.947,4.99992371,0.9853,3.9212
5603,84034.8,2.9458,5.00007629,0.9857,3.9208
5604,84035.88,2.9447,4.99961853,0.9865,3.9204
5605,84036.96,2.9436,4.99992371,0.9869,3.9197
5606,84037.68,2.9429,5.00022888,0.9872,3.9197
5607,84037.68,3.0954,0,0.9872,3.9197
5608,84037.68,3.1324,0,0.9872,3.9196
5609,84038.04,3.145,0,0.8688,3.9903
5610,84038.76,3.1562,0,0.8556,3.9981
5611,84039.84,3.1667,0,0.8494,4.0034
5612,84040.56,3.1746,0,0.8458,4.0075
5613,84041.64,3.1809,0,0.8429,4.011
5614,84042.72,3.1862,0,0.8404,4.0139
5615,84043.8,3.1913,0,0.8383,4.0169
5616,84044.52,3.1958,0,0.8364,4.0191
5617,84045.6,3.1998,0,0.8342,4.0212
5618,84046.68,3.2035,0,0.8326,4.0236
5619,84047.76,3.2068,0,0.831,4.026
5620,84048.84,3.2102,0,0.8297,4.0277
5621,84049.56,3.2131,0,0.8283,4.0295
5622,84050.64,3.2161,0,0.8272,4.0309
5623,84051.72,3.2186,0,0.8261,4.0325
5624,84052.8,3.2213,0,0.8248,4.0339
5625,84053.88,3.2236,0,0.824,4.0352
5626,84054.6,3.2261,0,0.8226,4.0369
5627,84055.68,3.2284,0,0.8218,4.0381
5628,84056.76,3.2305,0,0.8206,4.0392
5629,84057.84,3.2326,0,0.8199,4.0404
5630,84058.56,3.2346,0,0.8191,4.0412
5631,84059.64,3.2364,0,0.8181,4.0425
5632,84060.72,3.2384,0,0.8173,4.0435
5633,84061.8,3.2399,0,0.8165,4.0444
5634,84062.88,3.2416,0,0.8157,4.0454
5635,84063.6,3.2433,0,0.8149,4.0465
5636,84064.68,3.2451,0,0.8141,4.0473
5637,84065.76,3.2465,0,0.8137,4.0484
5638,84066.84,3.248,0,0.813,4.0492
5639,84067.56,3.2496,0,0.8124,4.0498
5640,84068.64,3.2509,0,0.8119,4.0506
5641,84069.72,3.2523,0,0.8109,4.0514
5642,84070.8,3.2537,0,0.8105,4.0522
5643,84071.52,3.2551,0,0.8098,4.0532
5644,84072.6,3.2561,0,0.8094,4.0538
5645,84073.68,3.2576,0,0.8087,4.0544
5646,84074.76,3.2586,0,0.8082,4.0548
5647,84075.84,3.2596,0,0.8078,4.0555
5648,84076.56,3.2609,0,0.8071,4.0562
5649,84077.64,3.2621,0,0.8068,4.0567
5650,84078.72,3.2631,0,0.8063,4.0575
5651,84079.8,3.2642,0,0.8057,4.0582
5652,84080.88,3.2654,0,0.8052,4.0587
5653,84081.6,3.2662,0,0.8049,4.0594
5654,84082.68,3.2671,0,0.8044,4.0598
5655,84083.76,3.2682,0,0.8043,4.0603
5656,84084.84,3.2691,0,0.8035,4.0608
5657,84085.56,3.2699,0,0.8033,4.0611
5658,84086.64,3.2708,0,0.803,4.0619
5659,84087.72,3.2718,0,0.8024,4.0622
5660,84088.8,3.2726,0,0.802,4.0627
5661,84089.52,3.2735,0,0.8017,4.0632
5662,84090.6,3.2741,0,0.8012,4.0637
5663,84091.68,3.275,0,0.8011,4.0641
5664,84092.76,3.2757,0,0.8004,4.0643
5665,84093.84,3.2764,0,0.8003,4.0648
5666,84094.56,3.2775,0,0.7997,4.0651
5667,84095.64,3.2781,0,0.7993,4.0654
5668,84096.72,3.2787,0,0.799,4.0657
5669,84097.8,3.2793,0,0.7987,4.066
5670,84097.8,3.2795,0,0.7987,4.066
5671,84115.08,3.2895,0,0.7957,4.0735
5672,84139.56,3.2996,0,0.7909,4.0784
5673,84180.96,3.3097,0,0.7853,4.0829
5674,84241.08,3.3179,0,0.781,4.0861
5675,84301.2,3.3225,0,0.7777,4.0872
5676,84360.96,3.3256,0,0.776,4.088
5677,84421.08,3.3274,0,0.7771,4.0912
5678,84481.2,3.3288,0,0.7756,4.0909
5679,84540.96,3.33,0,0.7745,4.0904
5680,84601.08,3.3309,0,0.7745,4.0912
5681,84661.2,3.3317,0,0.7729,4.0904
5682,84720.96,3.3324,0,0.7736,4.0918
5683,84781.08,3.333,0,0.7733,4.0916
5684,84841.2,3.3336,0,0.7736,4.0926
5685,84900.96,3.3342,0,0.7721,4.091
5686,84961.08,3.3346,0,0.7731,4.0928
5687,85021.2,3.335,0,0.7717,4.0918
5688,85080.96,3.3352,0,0.7715,4.092
5689,85141.08,3.3356,0,0.7728,4.0936
5690,85201.2,3.3361,0,0.7739,4.095
5691,85260.96,3.3362,0,0.7725,4.0934
5692,85321.08,3.3364,0,0.7715,4.0928
5693,85381.2,3.3367,0,0.7712,4.0926
5694,85440.96,3.337,0,0.7717,4.0937
5695,85501.08,3.3373,0,0.7705,4.0923
5696,85561.2,3.3373,0,0.7693,4.0913
5697,85620.96,3.3378,0,0.7694,4.092
5698,85681.08,3.3379,0,0.7691,4.0913
5699,85741.2,3.3379,0,0.7696,4.0921
5700,85800.96,3.3381,0,0.7693,4.092
5701,85861.08,3.3387,0,0.7683,4.091
5702,85921.2,3.3385,0,0.768,4.0905
5703,85980.96,3.3388,0,0.7688,4.092
5704,86041.08,3.3393,0,0.769,4.0921
5705,86101.2,3.3393,0,0.768,4.0913
5706,86160.96,3.3393,0,0.7686,4.0921
5707,86221.08,3.3396,0,0.7683,4.0921
5708,86281.2,3.3394,0,0.7678,4.0916
5709,86340.96,3.3397,0,0.7674,4.0913
5710,86401.08,3.3397,0,0.7682,4.0924
5711,86461.2,3.3402,0,0.7677,4.0918
5712,86520.96,3.3404,0,0.7672,4.0916
5713,86581.08,3.3404,0,0.7677,4.0923
5714,86641.2,3.3405,0,0.7678,4.0926
5715,86700.96,3.3407,0,0.7674,4.092
5716,86761.08,3.3405,0,0.7667,4.0915
5717,86821.2,3.3407,0,0.7674,4.0924
5718,86880.96,3.3408,0,0.7671,4.0918
5719,86941.08,3.3408,0,0.7671,4.0921
5720,87001.2,3.3411,0,0.7663,4.0915
5721,87060.96,3.3411,0,0.7664,4.0918
5722,87121.08,3.3411,0,0.7659,4.0912
5723,87181.2,3.3411,0,0.7664,4.092
5724,87240.96,3.3414,0,0.7659,4.0913
5725,87301.08,3.3416,0,0.7655,4.091
5726,87361.2,3.3416,0,0.7651,4.0907
5727,87420.96,3.3419,0,0.7653,4.0907
5728,87481.08,3.3419,0,0.7663,4.0924
5729,87541.2,3.3417,0,0.7661,4.0923
5730,87600.96,3.3417,0,0.7658,4.0915
5731,87637.68,3.342,0,0.7653,4.0913
5732,87637.68,3.1656,5.001297,0.7653,4.0913