Index,Time [s],Voltage [V],Current [A],Negative electrode potential [V],Positive electrode potential [V]
2722,46444.53,3.836,0,0.2311,3.5902
2723,46444.57,3.7005,5.00038147,0.2311,3.5902
2724,46445.36,3.6901,4.99961853,0.1665,3.5107
2725,46446.36,3.6834,4.99961853,0.1646,3.5051
2726,46447.36,3.6785,4.99946594,0.1632,3.5016
2727,46448.36,3.6748,4.99961853,0.1622,3.4989
2728,46449.36,3.6713,4.99992371,0.1613,3.4965
2729,46450.36,3.6684,4.99977112,0.1605,3.4943
2730,46451.36,3.6657,5.00022888,0.1597,3.4922
2731,46452.36,3.6632,4.99946594,0.1591,3.4905
2732,46453.36,3.6606,4.99977112,0.1581,3.4889
2733,46454.36,3.6584,4.99992371,0.1576,3.4866
2734,46455.36,3.6564,4.99961853,0.157,3.4854
2735,46456.36,3.6545,4.99961853,0.1565,3.4839
2736,46457.36,3.6526,5.00038147,0.156,3.4827
2737,46458.36,3.6509,5.00038147,0.1556,3.4814
2738,46459.36,3.649,5.00022888,0.1551,3.4803
2739,46460.36,3.6475,4.99992371,0.1545,3.4793
2740,46461.36,3.6461,4.99992371,0.154,3.4784
2741,46462.36,3.6446,5.00038147,0.1533,3.4771
2742,46463.36,3.6431,5.00053406,0.1532,3.476
2743,46464.36,3.642,5.00022888,0.1527,3.475
2744,46465.36,3.6405,5.00022888,0.1524,3.4741
2745,46466.36,3.6394,4.99992371,0.1521,3.4734
2746,46467.36,3.6382,4.99977112,0.1517,3.4725
2747,46468.36,3.637,4.99977112,0.1513,3.4715
2748,46469.36,3.6356,4.99992371,0.151,3.4711
2749,46470.36,3.6344,4.99992371,0.1505,3.4703
2750,46471.36,3.6335,4.99992371,0.1502,3.4693
2751,46472.36,3.6326,5.00022888,0.1502,3.4688
2752,46473.36,3.6315,5.00022888,0.1495,3.468
2753,46474.36,3.6303,5.00038147,0.1489,3.4669
2754,46475.36,3.6294,5.00007629,0.149,3.4663
2755,46476.36,3.6283,5.00007629,0.1486,3.4658
2756,46477.36,3.6275,4.99931335,0.1483,3.4653
2757,46478.36,3.6266,4.99977112,0.1478,3.4647
2758,46479.36,3.6258,4.99992371,0.1476,3.4637
2759,46480.36,3.6248,4.99977112,0.1475,3.4633
2760,46481.36,3.6239,4.99961853,0.147,3.4628
2761,46482.36,3.6231,4.99992371,0.1471,3.4623
2762,46483.36,3.6223,5.00068665,0.1465,3.4617
2763,46484.36,3.6217,5.00053406,0.1467,3.4612
2764,46485.36,3.6208,4.99977112,0.146,3.4607
2765,46486.36,3.6201,4.99977112,0.1459,3.4602
2766,46487.36,3.6191,4.99931335,0.1457,3.4595
2767,46488.36,3.6184,4.99961853,0.1454,3.459
2768,46489.36,3.6178,4.99946594,0.1451,3.4587
2769,46490.36,3.6168,4.99977112,0.1451,3.458
2770,46491.36,3.6164,4.99931335,0.1448,3.4575
2771,46492.36,3.6158,5.00053406,0.1448,3.4571
2772,46493.36,3.615,5.00053406,0.1444,3.4564
2773,46494.36,3.6143,5.00099182,0.1443,3.456
2774,46495.36,3.6136,5.00038147,0.144,3.4555
2775,46496.36,3.613,5.00022888,0.1438,3.4552
2776,46497.36,3.6121,4.99992371,0.1436,3.4548
2777,46498.36,3.6117,5.00007629,0.1432,3.4542
2778,46499.36,3.6109,5.00053406,0.1433,3.4537
2779,46500.36,3.6104,4.99992371,0.143,3.4534
2780,46501.36,3.6097,4.99992371,0.1428,3.4531
2781,46502.36,3.6092,5.00022888,0.1428,3.4528
2782,46503.36,3.6088,4.99977112,0.1425,3.4521
2783,46504.36,3.6078,5.00038147,0.1422,3.4517
2784,46505.36,3.6072,4.99992371,0.142,3.4513
2785,46506.36,3.6068,5.00053406,0.142,3.4509
2786,46507.36,3.6059,4.99961853,0.1419,3.4509
2787,46508.36,3.6056,5.00022888,0.1417,3.4502
2788,46509.36,3.6051,5.00038147,0.1417,3.4498
2789,46510.36,3.6046,4.99992371,0.1414,3.4494
2790,46511.36,3.604,4.99992371,0.1411,3.449
2791,46512.36,3.6033,5.00007629,0.1411,3.4485
2792,46513.36,3.6031,5.00007629,0.1408,3.4482
2793,46514.36,3.6022,5.00007629,0.1408,3.4478
2794,46515.36,3.6017,5.00053406,0.1408,3.4472
2795,46516.36,3.6011,5.00007629,0.1406,3.447
2796,46517.36,3.6005,5.00038147,0.1405,3.4466
2797,46518.36,3.6001,5.00007629,0.1401,3.4461
2798,46519.36,3.5998,4.99977112,0.1401,3.4459
2799,46520.36,3.5991,5.00007629,0.1398,3.4453
2800,46521.36,3.5985,5.00007629,0.1397,3.4451
2801,46522.36,3.5981,5.00053406,0.1397,3.4447
2802,46523.36,3.5978,5.00007629,0.1395,3.4443
2803,46524.36,3.5972,5.00038147,0.1395,3.4439
2804,46525.36,3.5964,5.00022888,0.1393,3.4435
2805,46526.36,3.5958,5.00007629,0.1393,3.4432
2806,46527.36,3.5956,4.99992371,0.1392,3.4429
2807,46528.36,3.595,5.00068665,0.1387,3.4426
2808,46529.36,3.5946,5.00022888,0.1385,3.4423
2809,46530.36,3.5943,4.99961853,0.1387,3.4418
2810,46531.36,3.5937,5.00038147,0.1384,3.4415
2811,46532.36,3.593,4.99977112,0.1382,3.4412
2812,46533.36,3.5927,5.00022888,0.1382,3.4407
2813,46534.36,3.5921,4.99992371,0.1379,3.4405
2814,46535.36,3.5918,5.00022888,0.1381,3.4399
2815,46536.36,3.5914,4.99961853,0.1381,3.4397
2816,46537.36,3.5908,4.99961853,0.1379,3.4394
2817,46538.36,3.5903,4.99992371,0.1376,3.4389
2818,46539.36,3.5897,4.99977112,0.1376,3.4386
2819,46540.36,3.5894,5.00053406,0.1376,3.4383
2820,46541.36,3.5891,5.00007629,0.1376,3.4381
2821,46542.36,3.5885,5.00007629,0.1374,3.4375
2822,46543.36,3.5882,5.00038147,0.1374,3.4372
2823,46544.36,3.5875,5.00038147,0.1371,3.4367
2824,46545.36,3.5872,5.00068665,0.137,3.4364
2825,46546.36,3.5868,5.00022888,0.137,3.4361
2826,46547.36,3.5862,5.00007629,0.1368,3.4356
2827,46548.36,3.5859,5.00022888,0.1365,3.4354
2828,46549.36,3.5853,4.99992371,0.1366,3.435
2829,46550.36,3.5846,5.00007629,0.1365,3.4346
2830,46551.36,3.5843,5.00022888,0.1363,3.4342
2831,46552.36,3.5836,4.99977112,0.1363,3.434
2832,46553.36,3.5833,4.99992371,0.1363,3.4337
2833,46554.36,3.583,4.99977112,0.1362,3.4334
2834,46555.36,3.5825,4.99977112,0.136,3.4332
2835,46556.36,3.5819,4.99961853,0.1358,3.4326
2836,46557.36,3.5818,4.99961853,0.1358,3.4323
2837,46558.36,3.5811,5.00007629,0.1358,3.4319
2838,46559.36,3.5807,4.99961853,0.1355,3.4315
2839,46560.36,3.5802,4.99961853,0.1354,3.4311
2840,46561.36,3.5798,4.99977112,0.1354,3.4307
2841,46562.36,3.5795,4.99931335,0.1352,3.4303
2842,46563.36,3.5789,4.99961853,0.1352,3.43
2843,46564.36,3.5784,4.99961853,0.135,3.4297
2844,46565.36,3.5781,5.00007629,0.135,3.4296
2845,46566.36,3.5776,4.99961853,0.135,3.4292
2846,46567.36,3.5772,5.00022888,0.135,3.4286
2847,46568.36,3.5766,5.00053406,0.1347,3.4286
2848,46569.36,3.5764,5.00022888,0.1349,3.4281
2849,46570.36,3.5758,5.00038147,0.1346,3.428
2850,46571.36,3.5753,4.99961853,0.1346,3.4275
2851,46572.36,3.575,5.00007629,0.1347,3.4272
2852,46573.36,3.5747,5.00007629,0.1344,3.4268
2853,46574.36,3.5741,5.00038147,0.1343,3.4264
2854,46575.36,3.5735,5.00053406,0.1343,3.4259
2855,46576.36,3.5732,5.00053406,0.1341,3.4256
2856,46577.36,3.5729,4.99961853,0.1341,3.4251
2857,46578.36,3.5723,4.99977112,0.1339,3.4249
2858,46579.36,3.572,4.99977112,0.1339,3.4246
2859,46580.36,3.5715,4.99992371,0.1336,3.4245
2860,46581.36,3.5711,5.00038147,0.1336,3.424
2861,46582.36,3.5708,5.00007629,0.1336,3.4238
2862,46583.36,3.5703,5.00053406,0.1335,3.4233
2863,46584.36,3.5698,5.00007629,0.1335,3.4229
2864,46585.36,3.5697,4.99961853,0.1331,3.4226
2865,46586.36,3.5689,5.00007629,0.1333,3.4224
2866,46587.36,3.5685,4.99961853,0.1333,3.4221
2867,46588.36,3.568,5.00007629,0.133,3.4218
2868,46589.36,3.5676,4.99977112,0.133,3.4213
2869,46590.36,3.5671,4.99992371,0.1328,3.4211
2870,46591.36,3.5668,5.00038147,0.1328,3.4208
2871,46592.36,3.5666,5.00053406,0.1328,3.4203
2872,46593.36,3.5662,5.00007629,0.1328,3.4199
2873,46594.36,3.5657,4.99961853,0.1325,3.4197
2874,46594.53,3.5659,5.00038147,0.1325,3.4195
2875,46594.54,3.6971,0,0.1325,3.4195
2876,46595.54,3.7072,0,0.1963,3.4965
2877,46596.54,3.711,0,0.1977,3.4987
2878,46597.54,3.7137,0,0.1988,3.5008
2879,46598.54,3.716,0,0.1995,3.5021
2880,46599.54,3.7179,0,0.2001,3.5037
2881,46600.54,3.7195,0,0.2009,3.5046
2882,46601.54,3.7211,0,0.2011,3.5061
2883,46602.54,3.7226,0,0.2015,3.5068
2884,46603.54,3.7238,0,0.2018,3.5078
2885,46604.54,3.725,0,0.2022,3.5084
2886,46605.54,3.7261,0,0.2026,3.5096
2887,46606.54,3.7275,0,0.203,3.5103
2888,46607.54,3.7282,0,0.2033,3.5107
2889,46608.54,3.729,0,0.2036,3.5116
2890,46609.54,3.7302,0,0.2041,3.5124
2891,46610.54,3.731,0,0.2041,3.5131
2892,46611.54,3.7316,0,0.2044,3.5135
2893,46612.54,3.7327,0,0.2044,3.5138
2894,46613.54,3.7333,0,0.2047,3.5145
2895,46614.54,3.7342,0,0.205,3.5148
2896,46615.54,3.7345,0,0.2052,3.5154
2897,46616.54,3.7354,0,0.2055,3.5161
2898,46617.54,3.736,0,0.2058,3.5165
2899,46618.54,3.7366,0,0.2057,3.5167
2900,46619.54,3.7372,0,0.2061,3.5172
2901,46620.54,3.7378,0,0.2063,3.5175
2902,46621.54,3.7385,0,0.2063,3.5181
2903,46622.54,3.7389,0,0.2065,3.5186
2904,46623.54,3.7395,0,0.2066,3.5188
2905,46624.54,3.74,0,0.2068,3.5194
2906,46625.54,3.7404,0,0.2071,3.5197
2907,46626.54,3.7409,0,0.2071,3.5199
2908,46627.54,3.7412,0,0.2074,3.5202
2909,46628.54,3.7418,0,0.2073,3.5204
2910,46629.54,3.7424,0,0.2077,3.5208
2911,46630.54,3.7427,0,0.2077,3.521
2912,46631.54,3.7432,0,0.2077,3.5213
2913,46632.54,3.7435,0,0.2081,3.5215
2914,46633.54,3.744,0,0.2081,3.522
2915,46634.54,3.7444,0,0.2084,3.5223
2916,46635.54,3.7447,0,0.2082,3.5223
2917,46636.54,3.745,0,0.2087,3.5226
2918,46637.54,3.7453,0,0.2085,3.5228
2919,46638.54,3.7456,0,0.2085,3.5229
2920,46639.54,3.7459,0,0.209,3.5232
2921,46640.54,3.7464,0,0.209,3.5235
2922,46641.54,3.7467,0,0.209,3.5239
2923,46642.54,3.747,0,0.209,3.524
2924,46643.54,3.7475,0,0.2092,3.524
2925,46644.54,3.7478,0,0.2092,3.5245
2926,46645.54,3.7481,0,0.2095,3.5248
2927,46646.54,3.7484,0,0.2095,3.5248
2928,46647.54,3.7485,0,0.2096,3.525
2929,46648.54,3.7488,0,0.2095,3.5251
2930,46649.54,3.7488,0,0.21,3.5251
2931,46650.54,3.7496,0,0.2095,3.5256
2932,46651.54,3.7498,0,0.21,3.5258
2933,46652.54,3.7496,0,0.2101,3.5258
2934,46653.54,3.7501,0,0.21,3.5259
2935,46654.53,3.7502,0,0.21,3.5259
2936,46654.54,3.7504,0,0.21,3.5259
2937,46714.54,3.7581,0,0.2128,3.5313
2938,46774.54,3.7615,0,0.2136,3.5332
2939,46834.54,3.7629,0,0.2143,3.5345
2940,46894.54,3.7641,0,0.2146,3.5352
2941,46954.54,3.7647,0,0.2147,3.5355
2942,47014.54,3.7653,0,0.215,3.5361
2943,47074.54,3.7658,0,0.2152,3.5361
2944,47134.54,3.7662,0,0.2154,3.5364
2945,47194.54,3.7667,0,0.2157,3.5366
2946,47254.54,3.7671,0,0.2157,3.5369
2947,47314.54,3.7673,0,0.2158,3.5367
2948,47374.54,3.7676,0,0.216,3.5369
2949,47434.54,3.7679,0,0.2162,3.5371
2950,47494.54,3.7682,0,0.2163,3.5371
2951,47554.54,3.7685,0,0.2163,3.5372
2952,47614.54,3.7687,0,0.2166,3.5374
2953,47674.54,3.769,0,0.2166,3.5372
2954,47734.54,3.7688,0,0.2166,3.5372
2955,47794.54,3.769,0,0.2168,3.5372
2956,47854.54,3.7693,0,0.217,3.5372
2957,47914.54,3.7693,0,0.217,3.5374
2958,47974.54,3.7696,0,0.2171,3.5374
2959,48034.54,3.7699,0,0.2173,3.5374
2960,48094.54,3.7697,0,0.2171,3.5374
2961,48154.54,3.7699,0,0.2173,3.5374
2962,48214.54,3.77,0,0.2174,3.5375
2963,48274.54,3.7704,0,0.2176,3.5375
2964,48334.54,3.7702,0,0.2176,3.5374
2965,48394.54,3.7705,0,0.2176,3.5374
2966,48454.54,3.7705,0,0.2178,3.5372
2967,48514.54,3.7707,0,0.2179,3.5372
2968,48574.54,3.7707,0,0.2178,3.5375
2969,48634.54,3.7708,0,0.2179,3.5374
2970,48694.54,3.7708,0,0.2179,3.5374
2971,48754.54,3.771,0,0.2179,3.5372
2972,48814.54,3.771,0,0.2179,3.5372
2973,48874.54,3.7711,0,0.2181,3.5372
2974,48934.54,3.7711,0,0.2181,3.5372
2975,48994.54,3.7713,0,0.2182,3.5372
2976,49054.54,3.7714,0,0.2182,3.5372
2977,49114.54,3.7713,0,0.2182,3.5372
2978,49174.54,3.7714,0,0.2185,3.5371
2979,49234.54,3.7716,0,0.2184,3.5369
2980,49294.54,3.7716,0,0.2184,3.5372
2981,49354.54,3.7717,0,0.2185,3.5371
2982,49414.54,3.7717,0,0.2185,3.5371
2983,49474.54,3.7717,0,0.2187,3.5371
2984,49534.54,3.7722,0,0.2187,3.5371
2985,49594.54,3.7717,0,0.2185,3.5371
2986,49654.54,3.772,0,0.2189,3.5371
2987,49714.54,3.772,0,0.2189,3.5369
2988,49774.54,3.7719,0,0.2189,3.5371
2989,49834.54,3.7723,0,0.2189,3.5371
2990,49894.54,3.772,0,0.219,3.5369
2991,49954.54,3.772,0,0.2189,3.5371
2992,50014.54,3.7722,0,0.219,3.5369
2993,50074.54,3.7722,0,0.219,3.5366
2994,50134.54,3.7723,0,0.219,3.5369