Time [s],Voltage [V],Current [A],Negative electrode potential [V],Positive electrode potential [V]
169357.0023,3.2677963,0.0,0.33444986,3.602246
169357.0507,3.2679491,-5.52e-10,0.33433533,3.6022844
169357.0525,3.2602346,-0.000127148472,0.3371155,3.5973501
169357.0527,3.2591925,-0.001150006405,0.33735603,3.5965486
169357.0529,3.2581184,-0.0011499873309999999,0.33796194,3.5960803
169357.0545,3.2570493,-0.001149996883,0.33822915,3.5952785
169357.0597,3.2560377,-0.0011500075640000001,0.33842003,3.5944576
169357.0825,3.2550068,-0.0011500028069999998,0.33819097,3.5931978
169357.1359,3.2539186,-0.0011500098430000001,0.33807647,3.5919952
169357.3521,3.2529068,-0.001150005237,0.33777106,3.590678
169358.1521,3.2518761,-0.00115001193,0.33800012,3.5898762
169359.6879,3.2508645,-0.0011500183500000002,0.33843911,3.5893035
169361.4395,3.2498527,-0.001150023218,0.33880177,3.5886545
169363.5001,3.2488029,-0.0011500258430000001,0.33925986,3.5880628
169365.6471,3.2477722,-0.001150029583,0.33975613,3.5875282
169368.0783,3.2467604,-0.0011500315109999998,0.34025243,3.5870128
169370.3545,3.2457488,-0.001150033461,0.34082502,3.5865738
169373.1633,3.2447371,-0.001150032129,0.34132132,3.5860584
169375.6613,3.2437253,-0.001150034331,0.34183666,3.585562
169378.4207,3.2426565,-0.001150034487,0.34256199,3.5852184
169381.5023,3.2416446,-0.0011500367709999999,0.34288648,3.5845311
169384.2493,3.2406139,-0.001150037149,0.34363088,3.5842447
169387.0013,3.2395642,-0.00115004033,0.34397444,3.5835385
169390.1849,3.2385526,-0.001150038067,0.34462342,3.5831759
169393.1221,3.2375407,-0.0011500391,0.34531057,3.5828514
169395.9713,3.23651,-0.0011500389740000002,0.34592137,3.5824313
169399.1413,3.2354412,-0.001150041009,0.34653214,3.5819733
169402.4249,3.2343912,-0.001150040255,0.34720021,3.5815914
169405.6709,3.2333605,-0.001150040435,0.34788734,3.5812478
169409.0197,3.2323489,-0.001150044302,0.34851724,3.5808661
169412.1257,3.2312608,-0.0011500450099999999,0.34912804,3.5803888
169415.7915,3.2301919,-0.001150043399,0.34985334,3.5800452
169419.2147,3.2291803,-0.001150045107,0.35054049,3.5797207
169422.5599,3.2281113,-0.001150046989,0.3514185,3.5795298
169426.3183,3.2270424,-0.001150043261,0.35210565,3.5791481
169429.7157,3.2260306,-0.00115004078,0.35267827,3.5787089
169433.3345,3.225019,-0.001150044069,0.35334632,3.5783653
169436.8211,3.2239499,-0.00115004205,0.35418618,3.5781362
169440.4275,3.2229383,-0.0011500424069999999,0.3548924,3.5778308
169444.2735,3.2218885,-0.0011500430010000001,0.35559863,3.5774872
169447.6427,3.2208769,-0.001150040246,0.35634303,3.57722
169451.6751,3.2198651,-0.001150040863,0.35720196,3.5770671
169455.2571,3.2188344,-0.0011500437070000001,0.35790819,3.5767426
169459.1177,3.2178228,-0.001150043666,0.35859534,3.5764182
169462.6367,3.2167921,-0.0011500427449999998,0.35939702,3.576189
169466.7903,3.2157803,-0.0011500460370000001,0.3601605,3.5759408
169470.4427,3.2147686,-0.001150045198,0.36086676,3.5756354
169474.2777,3.213738,-0.0011500423470000001,0.36163023,3.5753682
169478.5827,3.2127073,-0.0011500444809999998,0.36248916,3.5751965
169482.7701,3.2116957,-0.001150046335,0.36327174,3.5749674
169486.4515,3.210665,-0.001150044743,0.36401615,3.574681
169490.5795,3.2096534,-0.001150045634,0.36487508,3.5745285
169494.6125,3.2086225,-0.0011500441029999998,0.36567676,3.5742993
169499.0733,3.2075727,-0.001150042151,0.36651659,3.5740893
169503.5443,3.2065611,-0.001150043605,0.3672801,3.5738411
169507.7711,3.2055111,-0.001150043036,0.36804357,3.5735548
169512.1593,3.2044613,-0.001150046293,0.36901703,3.5734785
169516.5955,3.2034497,-0.001150047777,0.36981872,3.5732684
169521.2857,3.202419,-0.0011500463839999998,0.37058219,3.5730011
169525.9549,3.2013693,-0.001150048309,0.37155566,3.5729249
169530.1803,3.2003193,-0.001150045935,0.37228099,3.5726004
169534.9351,3.1992693,-0.001150047304,0.37325442,3.5725238
169539.6301,3.1982579,-0.001150048343,0.37401792,3.5722759
169544.7847,3.1972082,-0.0011500460539999998,0.3747814,3.5719895
169549.7737,3.1961963,-0.001150049463,0.37571669,3.571913
169554.5991,3.1951466,-0.0011500467320000002,0.3766138,3.5717604
169559.7881,3.1940966,-0.001150047249,0.37754908,3.5716457
169565.0703,3.1930852,-0.00115004592,0.37833166,3.5714169
169570.4537,3.1920161,-0.001150047888,0.37922877,3.571245
169576.0971,3.1910048,-0.001150047962,0.38010678,3.5711114
169581.5717,3.1899738,-0.001150047923,0.38102296,3.5709968
169586.9679,3.1889238,-0.001150049274,0.38188189,3.5708058
169592.8761,3.1879125,-0.001150049586,0.38272175,3.5706341
169598.9717,3.1868434,-0.0011500515769999999,0.38363793,3.5704813
169605.1277,3.1857936,-0.001150048959,0.38455412,3.5703478
169611.4993,3.184782,-0.0011500458090000002,0.38547033,3.5702524
169617.5825,3.1837323,-0.001150047554,0.38632926,3.5700614
169624.7901,3.1826823,-0.0011500465250000001,0.38726452,3.5699468
169631.5529,3.1816516,-0.001150047872,0.38835251,3.5700042
169638.6739,3.1805446,-0.001150047098,0.38921145,3.569756
169646.5631,3.1794946,-0.00115004825,0.39012763,3.5696223
169653.7155,3.1784639,-0.001150047587,0.39102474,3.5694888
169661.2679,3.1774333,-0.0011500476660000001,0.39190274,3.5693359
169668.9577,3.1764026,-0.0011500489650000001,0.39283803,3.5692406
169677.5753,3.1753526,-0.001150047533,0.39367789,3.5690305
169685.5808,3.1743221,-0.001150049106,0.39457497,3.568897
169694.5312,3.1732912,-0.001150048785,0.39551026,3.5688014
169703.684,3.1722605,-0.001150049206,0.39633101,3.5685916
169712.3024,3.1712489,-0.001150048615,0.39732355,3.5685725
169722.0838,3.1702373,-0.001150046327,0.39808705,3.5683243
169731.3506,3.1692255,-0.001150043099,0.39892688,3.5681524
169741.0416,3.1681759,-0.001150046572,0.39982399,3.5679998
169750.9908,3.1671641,-0.001150047738,0.4007211,3.5678852
169760.5458,3.1661334,-0.0011500482249999998,0.40140826,3.5675416
169770.773,3.1651218,-0.001150050847,0.40234354,3.5674653
169780.6836,3.1641099,-0.001150050698,0.40322155,3.5673316
169790.713,3.1630983,-0.00115005056,0.40396595,3.5670643
169801.0766,3.1620104,-0.0011500499420000001,0.40482488,3.5668354
169812.1292,3.1609225,-0.001150050262,0.40566474,3.5665872
169822.7304,3.1598725,-0.001150052087,0.40656182,3.5664344
169833.01,3.1588609,-0.0011500524190000002,0.4073635,3.5662243
169843.0088,3.1578112,-0.001150050477,0.40818426,3.5659955
169852.8874,3.1567996,-0.001150050226,0.40900502,3.5658045
169863.3822,3.1557877,-0.0011500488769999998,0.40982577,3.5656135
169872.6526,3.1547761,-0.001150048933,0.410532,3.5653081
169883.1708,3.1537454,-0.001150050123,0.41150546,3.5652509
169892.8924,3.1527338,-0.001150050559,0.41223076,3.5649645
169902.1936,3.151684,-0.001150046377,0.41312787,3.5648119
169912.1216,3.1506724,-0.001150045129,0.4138532,3.5645256
169921.686,3.1496606,-0.001150047898,0.41465485,3.5643156
169930.7728,3.148649,-0.001150049378,0.41539928,3.5640483
169940.0024,3.1476374,-0.0011500501839999998,0.41620094,3.5638382
169950.3438,3.1465876,-0.0011500504519999998,0.41719347,3.563781
169959.5902,3.145576,-0.0011500506530000001,0.41788062,3.5634565
169969.4432,3.1445642,-0.001150049926,0.4186632,3.5632274
169977.4744,3.1435525,-0.001150051227,0.41950306,3.5630555
169988.2052,3.1424837,-0.001150052506,0.42040014,3.5628839
169997.2938,3.1414719,-0.001150050639,0.42124,3.562712
170006.2542,3.1404221,-0.001150049872,0.42202258,3.5624447
170016.6828,3.1394105,-0.001150051889,0.42288151,3.5622921
170025.5604,3.1383989,-0.001150049344,0.42370227,3.5621011
170034.918,3.1373873,-0.001150050051,0.42458028,3.5619676
170044.3722,3.1363564,-0.0011500500950000002,0.42549646,3.5618529
170053.004,3.1353257,-0.001150051279,0.42624089,3.5615666
170062.8968,3.134295,-0.00115005129,0.42706165,3.5613565
170071.4776,3.1332834,-0.001150051604,0.42782512,3.5611086
170081.6642,3.1322718,-0.001150051057,0.42872223,3.5609939
170090.2948,3.1312411,-0.001150053774,0.42960024,3.5608413
170099.667,3.1302102,-0.001150053153,0.4304401,3.5606503
170109.0418,3.1291604,-0.001150051603,0.4313181,3.5604784
170118.6554,3.1281106,-0.001150048639,0.43219614,3.5603068
170128.3122,3.1270607,-0.001150049732,0.43305507,3.5601158
170137.5222,3.1259727,-0.0011500512430000001,0.43393308,3.5599058
170147.1114,3.1249611,-0.001150050712,0.43479201,3.5597532
170156.0,3.1239305,-0.00115004994,0.43567002,3.5596004
170165.8752,3.1228995,-0.001150046606,0.43641442,3.559314
170175.753,3.1218879,-0.001150050107,0.43738788,3.5592759
170184.3308,3.1208191,-0.00115005264,0.43824682,3.5590658
170193.61,3.1198075,-0.0011500497,0.4390485,3.558856
170202.758,3.1187768,-0.0011500502690000001,0.43986925,3.558646
170212.223,3.1177649,-0.001150050516,0.44070908,3.5584741
170222.0576,3.1167345,-0.0011500515630000002,0.44152984,3.5582643
170231.311,3.1157036,-0.00115005174,0.44240785,3.5581114
170239.2018,3.1146917,-0.0011500515309999999,0.4432286,3.5579205
170249.6676,3.1136613,-0.001150051982,0.44408754,3.5577488
170257.0026,3.113184,-0.0011500519199999998,0.44466016,3.5578442
170257.0508,3.1283989,0.0,0.44072816,3.5691271
170257.0512,3.1272955,0.0,0.44070908,3.5680046
170257.0524,3.1287122,0.0,0.44057548,3.5692875
170257.0526,3.1270614,0.0,0.44059455,3.567656
170257.0888,3.1280732,0.0,0.44057548,3.5686488
170257.1792,3.1291425,0.0,0.44082361,3.5699661
170257.4036,3.1301732,0.0,0.44101447,3.5711877
170257.9832,3.1311851,0.0,0.44091904,3.572104
170259.1532,3.1321967,0.0,0.44067091,3.5728676
170260.732,3.1332273,0.0,0.44032735,3.5735548
170262.6644,3.1342392,0.0,0.43992651,3.5741656
170265.0296,3.1352508,0.0,0.43964019,3.5748911
170267.3384,3.1363008,0.0,0.439163,3.5754638
170270.2554,3.1373315,0.0,0.43866673,3.5759983
170273.127,3.1383431,0.0,0.43836135,3.5767045
170276.186,3.1393549,0.0,0.4378269,3.5771818
170279.213,3.1403856,0.0,0.43729246,3.5776782
170282.7714,3.1414547,0.0,0.43679619,3.5782509
170286.6648,3.1424663,0.0,0.43626174,3.578728
170290.4818,3.143497,0.0,0.43574637,3.5792434
170294.7608,3.1445277,0.0,0.43513557,3.5796633
170299.0306,3.1455395,0.0,0.43458205,3.5801215
170303.474,3.1465893,0.0,0.43404761,3.580637
170308.4492,3.1476581,0.0,0.43343681,3.581095
170313.7376,3.14867,0.0,0.43288326,3.5815532
170319.1314,3.1496816,0.0,0.43221521,3.5818968
170324.8295,3.1507316,0.0,0.43162352,3.582355
170330.8825,3.1517622,0.0,0.43097454,3.5827367
170337.3359,3.1527739,0.0,0.43040192,3.5831759
170344.0957,3.1538239,0.0,0.42961934,3.5834432
170351.2439,3.1548545,0.0,0.42897037,3.5838249
170359.0897,3.1558852,0.0,0.42832139,3.5842066
170366.6699,3.1568968,0.0,0.42761517,3.584512
170376.2401,3.1579087,0.0,0.42692801,3.5848367
170385.1385,3.1589584,0.0,0.42622179,3.5851803
170395.2427,3.1599703,0.0,0.42545831,3.5854285
170406.1025,3.1609819,0.0,0.42475206,3.5857339
170418.1167,3.1619933,0.0,0.42396948,3.5859628
170430.8623,3.1630239,0.0,0.4231869,3.586211
170444.0757,3.1640358,0.0,0.42248067,3.5865164
170458.7211,3.1650474,0.0,0.42171717,3.5867646
170474.8039,3.1661162,0.0,0.42093459,3.5870509
170494.2969,3.1671281,0.0,0.42009476,3.5872228
170514.5891,3.1682162,0.0,0.41923583,3.5874519
170537.6507,3.1692851,0.0,0.41843417,3.5877192
170562.6085,3.170373,0.0,0.41749889,3.5878718
170591.5183,3.1714227,0.0,0.4166972,3.58812
170625.3061,3.1724727,0.0,0.41583827,3.588311
170662.8075,3.1734843,0.0,0.41494116,3.5884254
170703.0615,3.174515,0.0,0.41410133,3.5886164
170751.6119,3.1755648,0.0,0.41314697,3.5887117
170805.7505,3.1765766,0.0,0.41228804,3.5888646
170862.9583,3.1776071,0.0,0.41137186,3.588979
170922.9583,3.1778746,0.0,0.41097102,3.5888455
170956.4755,3.1789243,0.0,0.41018844,3.5891128
171016.4756,3.1792104,0.0,0.40988302,3.5890934
171074.5198,3.1802602,0.0,0.40911955,3.5893798
171134.5198,3.180222,0.0,0.40883324,3.5890553
171178.7414,3.1812339,0.0,0.40822244,3.5894563
171238.7414,3.1812911,0.0,0.40789795,3.5891891
171298.7414,3.181921,0.0,0.40747803,3.5893991
171311.0534,3.1818445,0.0,0.40749711,3.5893416
