Index,Time [s],Voltage [V],Current [A],Negative electrode potential [V],Positive electrode potential [V]
3267,53944.53,3.7241,0,0.2114,3.496
3268,53944.56,3.5886,5.00419617,0.2114,3.496
3269,53945.56,3.579,5.00007629,0.1475,3.4165
3270,53946.56,3.575,4.99977112,0.1459,3.413
3271,53947.56,3.5717,4.99992371,0.1449,3.4109
3272,53948.56,3.5688,5.00007629,0.144,3.409
3273,53949.56,3.5663,5.00007629,0.1432,3.4073
3274,53950.56,3.5642,5.00068665,0.1425,3.4057
3275,53951.56,3.5619,5.00038147,0.142,3.4044
3276,53952.56,3.5601,5.00007629,0.1414,3.403
3277,53953.56,3.5581,5.00007629,0.1409,3.4016
3278,53954.56,3.5564,5.00053406,0.1405,3.4001
3279,53955.56,3.5546,5.00053406,0.14,3.399
3280,53956.56,3.5531,5.00022888,0.1397,3.3977
3281,53957.56,3.5515,5.00068665,0.1392,3.3968
3282,53958.56,3.5499,5.00007629,0.1384,3.3955
3283,53959.56,3.5488,4.99992371,0.1382,3.3946
3284,53960.56,3.5473,5.00007629,0.1378,3.3934
3285,53961.56,3.5459,4.99961853,0.1373,3.3927
3286,53962.56,3.5447,4.99961853,0.1371,3.3917
3287,53963.56,3.5433,4.99977112,0.1366,3.3906
3288,53964.56,3.5424,4.99977112,0.1365,3.3899
3289,53965.56,3.541,4.99992371,0.136,3.389
3290,53966.56,3.5398,5.00007629,0.1357,3.3884
3291,53967.56,3.5389,4.99977112,0.1354,3.3874
3292,53968.56,3.5378,4.99977112,0.1354,3.3868
3293,53969.56,3.5367,5.00007629,0.1349,3.3858
3294,53970.56,3.5357,4.99992371,0.1346,3.3852
3295,53971.56,3.5348,5.00007629,0.1343,3.3844
3296,53972.56,3.5335,5.00022888,0.1343,3.3837
3297,53973.56,3.5326,5.00007629,0.1336,3.3831
3298,53974.56,3.5319,5.00007629,0.1335,3.3825
3299,53975.56,3.5306,5.00068665,0.1333,3.3818
3300,53976.56,3.5299,5.00038147,0.1331,3.381
3301,53977.56,3.529,5.00053406,0.1327,3.3806
3302,53978.56,3.5282,5.00007629,0.1325,3.3798
3303,53979.56,3.5273,5.00022888,0.1323,3.3793
3304,53980.56,3.5264,5.00053406,0.132,3.3787
3305,53981.56,3.5256,5.00053406,0.1319,3.3782
3306,53982.56,3.5248,5.00053406,0.1319,3.3777
3307,53983.56,3.5242,5.00068665,0.1314,3.3771
3308,53984.56,3.523,5.00022888,0.1312,3.3764
3309,53985.56,3.5222,4.99961853,0.1311,3.3758
3310,53986.56,3.5216,5.00007629,0.1309,3.3752
3311,53987.56,3.521,5.00083923,0.1306,3.3747
3312,53988.56,3.5201,5.00038147,0.1306,3.374
3313,53989.56,3.5195,5.00038147,0.1301,3.3736
3314,53990.56,3.5187,5.00038147,0.1303,3.3729
3315,53991.56,3.5178,5.00053406,0.13,3.3725
3316,53992.56,3.5172,5.00007629,0.1298,3.372
3317,53993.56,3.5166,5.00038147,0.1295,3.3715
3318,53994.56,3.5161,5.00068665,0.1295,3.371
3319,53995.56,3.5152,5.00038147,0.1292,3.3707
3320,53996.56,3.5143,5.00007629,0.129,3.3701
3321,53997.56,3.514,4.99992371,0.129,3.3696
3322,53998.56,3.5134,4.99992371,0.1285,3.3694
3323,53999.56,3.5128,4.99977112,0.1284,3.3686
3324,54000.56,3.5122,5.00038147,0.1282,3.3683
3325,54001.56,3.5116,5.00053406,0.1281,3.3677
3326,54002.56,3.5108,4.99961853,0.1281,3.3674
3327,54003.56,3.51,4.99992371,0.1279,3.3667
3328,54004.56,3.5097,5.00053406,0.1276,3.3663
3329,54005.56,3.509,4.99992371,0.1276,3.3659
3330,54006.56,3.5087,4.99946594,0.1274,3.3656
3331,54007.56,3.508,5.00038147,0.1271,3.3651
3332,54008.56,3.5074,4.99977112,0.1271,3.3647
3333,54009.56,3.507,4.99946594,0.1268,3.3643
3334,54010.56,3.5062,5.00053406,0.1268,3.3637
3335,54011.56,3.5058,5.00007629,0.1266,3.3635
3336,54012.56,3.5053,5.00007629,0.1268,3.3632
3337,54013.56,3.5048,5.00022888,0.1265,3.3628
3338,54014.56,3.5041,5.00007629,0.1263,3.3623
3339,54015.56,3.5036,5.00022888,0.1261,3.362
3340,54016.56,3.503,4.99977112,0.1261,3.3615
3341,54017.56,3.5026,4.99946594,0.1258,3.3612
3342,54018.56,3.5021,5.00007629,0.1258,3.3608
3343,54019.56,3.5015,5.00053406,0.1257,3.3604
3344,54020.56,3.5012,4.99961853,0.1257,3.36
3345,54021.56,3.5006,4.99992371,0.1253,3.3597
3346,54022.56,3.5001,5.00007629,0.1253,3.3594
3347,54023.56,3.4997,4.99992371,0.1253,3.3589
3348,54024.56,3.499,4.99992371,0.1252,3.3586
3349,54025.56,3.4986,5.00068665,0.1252,3.3581
3350,54026.56,3.4983,5.00007629,0.1249,3.3578
3351,54027.56,3.4978,4.99977112,0.1247,3.3575
3352,54028.56,3.4972,5.00038147,0.1249,3.3573
3353,54029.56,3.4969,5.00053406,0.1246,3.3569
3354,54030.56,3.4966,5.00007629,0.1246,3.3566
3355,54031.56,3.496,5.00007629,0.1244,3.3562
3356,54032.56,3.4955,5.00022888,0.1244,3.3561
3357,54033.56,3.4952,4.99992371,0.1244,3.3554
3358,54034.56,3.4946,4.99977112,0.1241,3.3551
3359,54035.56,3.4942,4.99992371,0.1241,3.3545
3360,54036.56,3.4937,5.00099182,0.1239,3.3546
3361,54037.56,3.4934,4.99977112,0.1239,3.3542
3362,54038.56,3.4929,4.99977112,0.1239,3.3538
3363,54039.56,3.4925,4.99946594,0.1238,3.3535
3364,54040.56,3.4922,5.00038147,0.1236,3.3531
3365,54041.56,3.4916,4.99977112,0.1236,3.3529
3366,54042.56,3.4911,4.99992371,0.1234,3.3524
3367,54043.56,3.4907,5.00022888,0.1233,3.3521
3368,54044.56,3.4905,4.99992371,0.1233,3.3519
3369,54045.56,3.4902,4.99931335,0.1233,3.3515
3370,54046.56,3.4896,4.99992371,0.1231,3.3513
3371,54047.56,3.4891,4.99977112,0.1231,3.351
3372,54048.56,3.4888,4.99946594,0.1228,3.3505
3373,54049.56,3.4884,4.99977112,0.1228,3.3503
3374,54050.56,3.4879,4.99961853,0.1228,3.3499
3375,54051.56,3.4876,4.99977112,0.1228,3.3497
3376,54052.56,3.4871,4.99946594,0.1225,3.3494
3377,54053.56,3.4868,4.99992371,0.1225,3.3491
3378,54054.56,3.4867,4.99977112,0.1225,3.3489
3379,54055.56,3.4861,4.99992371,0.1225,3.3484
3380,54056.56,3.4856,5.00038147,0.1225,3.3481
3381,54057.56,3.4853,5.00022888,0.1223,3.3478
3382,54058.56,3.485,5.00007629,0.1222,3.3478
3383,54059.56,3.4844,4.99992371,0.1222,3.3472
3384,54060.56,3.4841,5.00038147,0.1222,3.347
3385,54061.56,3.4838,5.00053406,0.122,3.3468
3386,54062.56,3.4833,5.00068665,0.1218,3.3464
3387,54063.56,3.483,5.00022888,0.1218,3.3461
3388,54064.56,3.4827,4.99977112,0.1217,3.3459
3389,54065.56,3.4824,5.00007629,0.1217,3.3457
3390,54066.56,3.4821,5.00038147,0.1217,3.3451
3391,54067.56,3.4815,5.00038147,0.1215,3.3448
3392,54068.56,3.4813,5.00007629,0.1215,3.3443
3393,54069.56,3.4807,5.00053406,0.1215,3.3443
3394,54070.56,3.4804,5.00007629,0.1214,3.3438
3395,54071.56,3.48,5.00007629,0.1214,3.3435
3396,54072.56,3.4798,4.99992371,0.1214,3.3433
3397,54073.56,3.4794,5.00022888,0.1211,3.3432
3398,54074.56,3.4791,5.00007629,0.1212,3.343
3399,54075.56,3.4786,4.99977112,0.1209,3.3426
3400,54076.56,3.4784,4.99961853,0.1212,3.3424
3401,54077.56,3.4778,4.99992371,0.1209,3.3419
3402,54078.56,3.4775,5.00007629,0.1209,3.3416
3403,54079.56,3.4774,4.99977112,0.1207,3.3416
3404,54080.56,3.4769,5.00038147,0.1207,3.3411
3405,54081.56,3.4765,4.99992371,0.1206,3.341
3406,54082.56,3.4762,4.99992371,0.1204,3.3408
3407,54083.56,3.4759,5.00099182,0.1206,3.3403
3408,54084.56,3.4755,5.00053406,0.1204,3.34
3409,54085.56,3.4751,4.99992371,0.1204,3.3395
3410,54086.56,3.4748,5.00038147,0.1203,3.3395
3411,54087.56,3.4746,4.99992371,0.1203,3.3391
3412,54088.56,3.4742,4.99977112,0.1203,3.3389
3413,54089.56,3.4739,4.99946594,0.1203,3.3386
3414,54090.56,3.4734,4.99977112,0.1203,3.3383
3415,54091.56,3.4728,4.99992371,0.1199,3.3381
3416,54092.56,3.4728,4.99961853,0.1203,3.3378
3417,54093.56,3.4723,5.00022888,0.1199,3.3375
3418,54094.53,3.4719,4.99992371,0.1199,3.3375
3419,54094.54,3.6045,0,0.1199,3.3375
3420,54095.54,3.6141,0,0.1823,3.4149
3421,54096.54,3.6179,0,0.1842,3.4176
3422,54097.54,3.6205,0,0.1851,3.4194
3423,54098.54,3.6228,0,0.1861,3.4208
3424,54099.54,3.6249,0,0.1866,3.4227
3425,54100.54,3.6269,0,0.1872,3.424
3426,54101.54,3.6284,0,0.1875,3.4251
3427,54102.54,3.63,0,0.188,3.4262
3428,54103.54,3.6315,0,0.1883,3.4275
3429,54104.54,3.6327,0,0.1888,3.4281
3430,54105.54,3.6339,0,0.1891,3.4292
3431,54106.54,3.6352,0,0.1894,3.4299
3432,54107.54,3.6362,0,0.1896,3.4308
3433,54108.54,3.6374,0,0.1901,3.4316
3434,54109.54,3.6384,0,0.1904,3.4324
3435,54110.54,3.6394,0,0.1906,3.4331
3436,54111.54,3.6403,0,0.1907,3.4337
3437,54112.54,3.6408,0,0.191,3.4343
3438,54113.54,3.642,0,0.1914,3.435
3439,54114.54,3.6429,0,0.1915,3.4356
3440,54115.54,3.6435,0,0.1917,3.4362
3441,54116.54,3.6445,0,0.192,3.4369
3442,54117.54,3.6451,0,0.1921,3.4375
3443,54118.54,3.6458,0,0.1925,3.438
3444,54119.54,3.6464,0,0.1925,3.4385
3445,54120.54,3.6471,0,0.1926,3.4388
3446,54121.54,3.6477,0,0.1929,3.4393
3447,54122.54,3.6484,0,0.1929,3.4394
3448,54123.54,3.649,0,0.1933,3.4402
3449,54124.54,3.6497,0,0.1934,3.4405
3450,54125.54,3.6501,0,0.1937,3.441
3451,54126.54,3.6509,0,0.1936,3.4415
3452,54127.54,3.651,0,0.1939,3.4416
3453,54128.54,3.6518,0,0.1937,3.4423
3454,54129.54,3.6524,0,0.1942,3.4424
3455,54130.54,3.6527,0,0.1942,3.4429
3456,54131.54,3.6535,0,0.1944,3.4434
3457,54132.54,3.6538,0,0.1945,3.4435
3458,54133.54,3.6545,0,0.1949,3.4437
3459,54134.54,3.6548,0,0.1947,3.4445
3460,54135.54,3.6551,0,0.1949,3.4445
3461,54136.54,3.6556,0,0.195,3.445
3462,54137.54,3.6559,0,0.1952,3.445
3463,54138.54,3.6565,0,0.1953,3.4456
3464,54139.54,3.6567,0,0.1956,3.4456
3465,54140.54,3.6571,0,0.1955,3.4459
3466,54141.54,3.6574,0,0.1956,3.4463
3467,54142.54,3.6579,0,0.1956,3.4464
3468,54143.54,3.6582,0,0.196,3.4467
3469,54144.54,3.6587,0,0.196,3.447
3470,54145.54,3.6591,0,0.196,3.4472
3471,54146.54,3.6594,0,0.1963,3.4475
3472,54147.54,3.6599,0,0.1964,3.4482
3473,54148.54,3.6602,0,0.1964,3.448
3474,54149.54,3.6606,0,0.1963,3.4483
3475,54150.54,3.6608,0,0.1966,3.4485
3476,54151.54,3.6611,0,0.1964,3.4486
3477,54152.54,3.6614,0,0.1968,3.4488
3478,54153.54,3.6619,0,0.1968,3.4491
3479,54154.53,3.662,0,0.1971,3.4491
3480,54154.54,3.6622,0,0.1971,3.4491
3481,54207.08,3.6722,0,0.1998,3.4566
3482,54267.08,3.6773,0,0.2011,3.4604
3483,54327.08,3.6793,0,0.2017,3.462
3484,54387.08,3.6808,0,0.2022,3.4631
3485,54447.08,3.6817,0,0.2023,3.4637
3486,54507.08,3.6825,0,0.2025,3.4639
3487,54567.08,3.6826,0,0.2026,3.4642
3488,54627.08,3.6829,0,0.2028,3.4642
3489,54687.08,3.6834,0,0.2028,3.4642
3490,54747.08,3.6834,0,0.2031,3.4644
3491,54807.08,3.6837,0,0.203,3.4644
3492,54867.08,3.6837,0,0.2031,3.4644
3493,54927.08,3.684,0,0.2033,3.4647
3494,54987.08,3.6841,0,0.2031,3.4644
3495,55047.08,3.6843,0,0.2034,3.4645
3496,55107.08,3.6843,0,0.2034,3.4645
3497,55167.08,3.6843,0,0.2034,3.4645
3498,55227.08,3.6844,0,0.2036,3.4645
3499,55287.08,3.6846,0,0.2036,3.4644
3500,55347.08,3.6846,0,0.2038,3.4647
3501,55407.08,3.6846,0,0.2039,3.4644
3502,55467.08,3.6846,0,0.2038,3.4647
3503,55527.08,3.6849,0,0.2039,3.4647
3504,55587.08,3.6847,0,0.2039,3.4647
3505,55647.08,3.6851,0,0.2041,3.4647
3506,55707.08,3.6851,0,0.2039,3.4645
3507,55767.08,3.6851,0,0.2041,3.4642
3508,55827.08,3.6851,0,0.2041,3.4645
3509,55887.08,3.6852,0,0.2041,3.4645
3510,55947.08,3.6852,0,0.2041,3.4644
3511,56007.08,3.6854,0,0.2042,3.4644
3512,56067.08,3.6852,0,0.2041,3.4644
3513,56127.08,3.6851,0,0.2044,3.4645
3514,56187.08,3.6854,0,0.2042,3.4642
3515,56247.08,3.6855,0,0.2042,3.4645
3516,56307.08,3.6854,0,0.2044,3.4645
3517,56367.08,3.6855,0,0.2044,3.4644
3518,56427.08,3.6855,0,0.2044,3.4644
3519,56487.08,3.6855,0,0.2044,3.4642
3520,56547.08,3.6855,0,0.2046,3.4645
3521,56607.08,3.6857,0,0.2047,3.4645
3522,56667.08,3.6855,0,0.2046,3.4645
3523,56727.08,3.6857,0,0.2046,3.4642
3524,56787.08,3.6857,0,0.2047,3.4642
3525,56847.08,3.6857,0,0.2046,3.4644
3526,56907.08,3.6858,0,0.2047,3.4644
3527,56967.08,3.6858,0,0.2047,3.4642
3528,57027.08,3.6857,0,0.2049,3.4644
3529,57087.08,3.6858,0,0.2047,3.4642
3530,57147.08,3.6857,0,0.2049,3.4642
3531,57207.08,3.6858,0,0.205,3.4644
3532,57267.08,3.6858,0,0.2049,3.4641
3533,57327.08,3.6858,0,0.2049,3.4642
3534,57387.08,3.686,0,0.205,3.4641
3535,57447.08,3.686,0,0.2052,3.4641
3536,57507.08,3.686,0,0.205,3.4642
3537,57567.08,3.6858,0,0.205,3.4641
3538,57627.08,3.686,0,0.205,3.4642
3539,57687.08,3.6861,0,0.205,3.4641