Index,Time [s],Voltage [V],Current [A],Negative electrode potential [V],Positive electrode potential [V]
4086,65194.53,3.6327,0,0.1956,3.4194
4087,65194.56,3.4966,5.0037384,0.1956,3.4194
4088,65195.56,3.4873,5.00007629,0.1328,3.3386
4089,65196.56,3.4832,5.00038147,0.1311,3.3356
4090,65197.56,3.4801,5.00022888,0.13,3.3333
4091,65198.56,3.4775,5.00007629,0.129,3.3317
4092,65199.56,3.4749,4.99992371,0.1282,3.3298
4093,65200.56,3.4725,4.99992371,0.1276,3.3284
4094,65201.56,3.4705,4.99977112,0.1271,3.327
4095,65202.56,3.4688,4.99961853,0.1268,3.3257
4096,65203.56,3.4665,4.99977112,0.1258,3.3239
4097,65204.56,3.4649,5.00007629,0.1253,3.3225
4098,65205.56,3.4632,5.00038147,0.125,3.3211
4099,65206.56,3.4615,5.00007629,0.1247,3.3203
4100,65207.56,3.4597,4.99992371,0.1242,3.3192
4101,65208.56,3.4582,4.99992371,0.1239,3.3181
4102,65209.56,3.4569,4.99977112,0.1234,3.3165
4103,65210.56,3.4556,5.00007629,0.1228,3.3158
4104,65211.56,3.4537,5.00053406,0.1225,3.3146
4105,65212.56,3.4524,5.00022888,0.1223,3.3136
4106,65213.56,3.4513,5.00038147,0.122,3.3128
4107,65214.56,3.4498,5.00007629,0.1215,3.3117
4108,65215.56,3.4485,5.00022888,0.1214,3.3106
4109,65216.56,3.4472,4.99977112,0.1211,3.31
4110,65217.56,3.4463,4.99961853,0.1206,3.3088
4111,65218.56,3.445,5.00038147,0.1203,3.3084
4112,65219.56,3.4437,5.00068665,0.1199,3.3072
4113,65220.56,3.4424,5.00022888,0.1198,3.3063
4114,65221.56,3.4414,4.99977112,0.1196,3.3053
4115,65222.56,3.4403,5.00007629,0.1193,3.3044
4116,65223.56,3.4391,5.00038147,0.119,3.3037
4117,65224.56,3.4379,5.00053406,0.1187,3.3031
4118,65225.56,3.4371,5.00038147,0.1184,3.3023
4119,65226.56,3.436,5.00022888,0.118,3.3015
4120,65227.56,3.435,4.99961853,0.1179,3.3009
4121,65228.56,3.4342,4.99977112,0.1174,3.3001
4122,65229.56,3.433,4.99992371,0.1172,3.2991
4123,65230.56,3.4321,5.00068665,0.1171,3.2985
4124,65231.56,3.4311,5.00022888,0.1169,3.2979
4125,65232.56,3.4302,4.99946594,0.1166,3.2971
4126,65233.56,3.4292,4.99977112,0.1163,3.2964
4127,65234.56,3.4284,4.99977112,0.1161,3.2956
4128,65235.56,3.4272,4.99946594,0.1158,3.2952
4129,65236.56,3.4264,5.00038147,0.1156,3.2947
4130,65237.56,3.4255,4.99977112,0.1156,3.2937
4131,65238.56,3.4247,4.99992371,0.115,3.2929
4132,65239.56,3.4238,4.99992371,0.1149,3.2925
4133,65240.56,3.4229,4.99977112,0.1149,3.2918
4134,65241.56,3.4221,5.00022888,0.1145,3.2913
4135,65242.56,3.4214,5.00083923,0.1145,3.2905
4136,65243.56,3.4203,5.00022888,0.1144,3.2902
4137,65244.56,3.4195,4.99992371,0.1141,3.2894
4138,65245.56,3.4189,4.99977112,0.1139,3.289
4139,65246.56,3.4183,4.99992371,0.1136,3.2882
4140,65247.56,3.4174,4.99992371,0.1134,3.2875
4141,65248.56,3.4163,5.00068665,0.1133,3.287
4142,65249.56,3.4156,4.99977112,0.1129,3.2866
4143,65250.56,3.415,5.00007629,0.1129,3.2858
4144,65251.56,3.4142,5.00022888,0.1126,3.2853
4145,65252.56,3.4136,4.99977112,0.1126,3.285
4146,65253.56,3.4128,4.99992371,0.1125,3.2839
4147,65254.56,3.4121,5.00053406,0.1123,3.2835
4148,65255.56,3.4115,4.99961853,0.1121,3.2831
4149,65256.56,3.4105,5.00022888,0.1118,3.2826
4150,65257.56,3.4099,4.99977112,0.1118,3.2818
4151,65258.56,3.4092,5.00038147,0.1118,3.2815
4152,65259.56,3.4086,5.00022888,0.1115,3.281
4153,65260.56,3.4078,4.99992371,0.1114,3.2804
4154,65261.56,3.407,5.00022888,0.1114,3.2799
4155,65262.56,3.4066,4.99961853,0.111,3.2796
4156,65263.56,3.4061,5.00068665,0.1107,3.2791
4157,65264.56,3.4054,4.99946594,0.1106,3.2783
4158,65265.56,3.4046,5.00068665,0.1106,3.278
4159,65266.56,3.404,4.99977112,0.1104,3.2775
4160,65267.56,3.4034,5.00068665,0.1102,3.277
4161,65268.56,3.4029,5.00007629,0.1101,3.2766
4162,65269.56,3.4022,4.99992371,0.1099,3.2759
4163,65270.56,3.4015,5.00022888,0.1098,3.2754
4164,65271.56,3.4009,5.00007629,0.1098,3.275
4165,65272.56,3.4002,5.00022888,0.1096,3.2746
4166,65273.56,3.3996,5.00038147,0.1094,3.2738
4167,65274.56,3.3989,4.99961853,0.1093,3.2737
4168,65275.56,3.3983,4.99992371,0.1093,3.2731
4169,65276.56,3.3976,5.00068665,0.1091,3.2726
4170,65277.56,3.3974,4.99992371,0.109,3.2723
4171,65278.56,3.3965,4.99992371,0.109,3.2718
4172,65279.56,3.3962,4.99992371,0.1088,3.2713
4173,65280.56,3.3956,4.99961853,0.1088,3.271
4174,65281.56,3.395,5.00038147,0.1085,3.2707
4175,65282.56,3.3945,5.00038147,0.1083,3.27
4176,65283.56,3.3938,4.99977112,0.1085,3.2696
4177,65284.56,3.3931,4.99992371,0.1082,3.2694
4178,65285.56,3.3927,5.00038147,0.108,3.2686
4179,65286.56,3.3922,5.00022888,0.1079,3.2683
4180,65287.56,3.3918,5.00022888,0.1077,3.268
4181,65288.56,3.3912,4.99992371,0.1077,3.2675
4182,65289.56,3.3907,5.00099182,0.1077,3.267
4183,65290.56,3.3901,5.00022888,0.1077,3.2667
4184,65291.56,3.3898,5.00038147,0.1075,3.2662
4185,65292.56,3.389,5.00053406,0.1074,3.2659
4186,65293.56,3.3884,5.00068665,0.1074,3.2653
4187,65294.56,3.3878,5.00007629,0.1072,3.2649
4188,65295.56,3.3874,4.99946594,0.1072,3.2646
4189,65296.56,3.3869,4.99992371,0.1071,3.2641
4190,65297.56,3.3864,5.00022888,0.1069,3.2637
4191,65298.56,3.386,5.00053406,0.1067,3.2634
4192,65299.56,3.3855,5.00038147,0.1066,3.2629
4193,65300.56,3.3851,4.99992371,0.1067,3.2627
4194,65301.56,3.3845,5.00022888,0.1066,3.2622
4195,65302.56,3.3841,4.99977112,0.1064,3.2621
4196,65303.56,3.3837,4.99961853,0.1066,3.2618
4197,65304.56,3.3834,5.00022888,0.1064,3.2613
4198,65305.56,3.3825,5.00038147,0.1061,3.261
4199,65306.56,3.3825,5.00038147,0.1061,3.2605
4200,65307.56,3.3817,4.99977112,0.1063,3.2603
4201,65308.56,3.3816,4.99977112,0.1061,3.26
4202,65309.56,3.3809,4.99961853,0.1058,3.2595
4203,65310.56,3.3805,4.99961853,0.1058,3.2591
4204,65311.56,3.38,4.99977112,0.1056,3.2587
4205,65312.56,3.3799,4.99961853,0.1055,3.2586
4206,65313.56,3.3793,5.00022888,0.1055,3.2583
4207,65314.56,3.3788,5.00053406,0.1053,3.2579
4208,65315.56,3.3785,5.00038147,0.1055,3.2576
4209,65316.56,3.3782,4.99992371,0.1051,3.2573
4210,65317.56,3.3777,4.99977112,0.1051,3.257
4211,65318.56,3.3773,4.99946594,0.1051,3.2565
4212,65319.56,3.377,4.99992371,0.105,3.2564
4213,65320.56,3.3762,4.99977112,0.105,3.256
4214,65321.56,3.3761,5.00022888,0.105,3.2557
4215,65322.56,3.3756,5.00007629,0.1048,3.2554
4216,65323.56,3.3754,4.99977112,0.1047,3.2549
4217,65324.56,3.375,4.99992371,0.1047,3.2548
4218,65325.56,3.3747,5.00007629,0.1047,3.2544
4219,65326.56,3.3742,5.00053406,0.1047,3.2543
4220,65327.56,3.3739,5.00038147,0.1045,3.2538
4221,65328.56,3.3736,4.99977112,0.1045,3.2535
4222,65329.56,3.3732,4.99946594,0.1044,3.253
4223,65330.56,3.3727,4.99977112,0.1044,3.2529
4224,65331.56,3.3725,4.99931335,0.1042,3.2525
4225,65332.56,3.3721,4.99992371,0.1042,3.2522
4226,65333.56,3.3718,5.00007629,0.1044,3.2521
4227,65334.56,3.3715,5.00007629,0.104,3.2517
4228,65335.56,3.3709,5.00007629,0.104,3.2516
4229,65336.56,3.3706,5.00038147,0.104,3.2513
4230,65337.56,3.3701,5.00038147,0.1039,3.2511
4231,65338.56,3.37,4.99992371,0.1039,3.2506
4232,65339.56,3.3695,4.99946594,0.1039,3.2503
4233,65340.56,3.3692,4.99977112,0.1037,3.2503
4234,65341.56,3.3689,5.00022888,0.1036,3.2498
4235,65342.56,3.3686,5.00022888,0.1039,3.2495
4236,65343.56,3.3683,5.00038147,0.1036,3.2494
4237,65344.53,3.3678,4.99946594,0.1036,3.249
4238,65344.54,3.5015,0,0.1036,3.249
4239,65345.54,3.5106,0,0.1651,3.3286
4240,65346.54,3.5145,0,0.1672,3.3306
4241,65347.54,3.5169,0,0.168,3.3322
4242,65348.54,3.5192,0,0.1691,3.3336
4243,65349.54,3.521,0,0.1697,3.3354
4244,65350.54,3.5229,0,0.1702,3.3365
4245,65351.54,3.5245,0,0.1707,3.3376
4246,65352.54,3.5261,0,0.171,3.3387
4247,65353.54,3.5273,0,0.1713,3.3399
4248,65354.54,3.5286,0,0.1716,3.341
4249,65355.54,3.53,0,0.1719,3.3418
4250,65356.54,3.5314,0,0.1724,3.3424
4251,65357.54,3.5325,0,0.1726,3.3435
4252,65358.54,3.5335,0,0.1729,3.3441
4253,65359.54,3.5346,0,0.1734,3.3449
4254,65360.54,3.5357,0,0.1735,3.3461
4255,65361.54,3.5366,0,0.1737,3.3465
4256,65362.54,3.5375,0,0.1739,3.3473
4257,65363.54,3.5383,0,0.1742,3.3478
4258,65364.54,3.5392,0,0.1742,3.3486
4259,65365.54,3.5401,0,0.1745,3.3494
4260,65366.54,3.541,0,0.1748,3.3502
4261,65367.54,3.5419,0,0.1751,3.3507
4262,65368.54,3.5428,0,0.1751,3.3511
4263,65369.54,3.5435,0,0.1754,3.3519
4264,65370.54,3.5441,0,0.1754,3.3523
4265,65371.54,3.545,0,0.1759,3.3527
4266,65372.54,3.5457,0,0.1761,3.3534
4267,65373.54,3.5465,0,0.1761,3.354
4268,65374.54,3.5473,0,0.1762,3.3546
4269,65375.54,3.5477,0,0.1762,3.355
4270,65376.54,3.5483,0,0.1766,3.3558
4271,65377.54,3.5489,0,0.1767,3.3561
4272,65378.54,3.5497,0,0.1769,3.3566
4273,65379.54,3.5503,0,0.1769,3.357
4274,65380.54,3.5511,0,0.1772,3.3575
4275,65381.54,3.552,0,0.1774,3.358
4276,65382.54,3.5521,0,0.1777,3.3585
4277,65383.54,3.5529,0,0.1775,3.3591
4278,65384.54,3.5535,0,0.1778,3.3593
4279,65385.54,3.554,0,0.178,3.3597
4280,65386.54,3.5546,0,0.178,3.36
4281,65387.54,3.5549,0,0.1782,3.3602
4282,65388.54,3.5554,0,0.1782,3.3608
4283,65389.54,3.5558,0,0.1783,3.3612
4284,65390.54,3.5566,0,0.1785,3.362
4285,65391.54,3.557,0,0.1786,3.362
4286,65392.54,3.5575,0,0.1788,3.3623
4287,65393.54,3.5581,0,0.1789,3.3628
4288,65394.54,3.5583,0,0.1791,3.3631
4289,65395.54,3.5589,0,0.1789,3.3634
4290,65396.54,3.5595,0,0.1791,3.3639
4291,65397.54,3.5599,0,0.1791,3.3642
4292,65398.54,3.5602,0,0.1796,3.3643
4293,65399.54,3.5605,0,0.1797,3.3648
4294,65400.54,3.5612,0,0.1799,3.3648
4295,65401.54,3.5615,0,0.1799,3.3655
4296,65402.54,3.5622,0,0.1799,3.3658
4297,65403.54,3.5622,0,0.1799,3.3661
4298,65404.53,3.5627,0,0.1802,3.3664
4299,65404.54,3.5628,0,0.1802,3.3664
4300,65436.24,3.5729,0,0.1824,3.3739
4301,65486.06,3.583,0,0.185,3.3817
4302,65546.06,3.5894,0,0.1863,3.3865
4303,65606.06,3.5935,0,0.1874,3.3895
4304,65666.06,3.5966,0,0.1879,3.3915
4305,65726.06,3.5988,0,0.1885,3.3931
4306,65786.06,3.6007,0,0.1888,3.3946
4307,65846.06,3.602,0,0.1891,3.3957
4308,65906.06,3.6033,0,0.1894,3.3966
4309,65966.06,3.6045,0,0.1898,3.3973
4310,66026.06,3.6048,0,0.1898,3.3977
4311,66086.06,3.6056,0,0.1902,3.3981
4312,66146.06,3.6062,0,0.1902,3.3984
4313,66206.06,3.6065,0,0.1904,3.3987
4314,66266.06,3.6069,0,0.1906,3.3989
4315,66326.06,3.6072,0,0.1906,3.399
4316,66386.06,3.6074,0,0.1907,3.3993
4317,66446.06,3.6078,0,0.1909,3.3993
4318,66506.06,3.6078,0,0.191,3.3995
4319,66566.06,3.6083,0,0.1912,3.3997
4320,66626.06,3.6088,0,0.191,3.3998
4321,66686.06,3.6088,0,0.1912,3.4
4322,66746.06,3.6088,0,0.1912,3.4
4323,66806.06,3.6091,0,0.1914,3.4
4324,66866.06,3.6091,0,0.1914,3.4
4325,66926.06,3.6091,0,0.1914,3.4
4326,66986.06,3.6094,0,0.1914,3.4
4327,67046.06,3.6095,0,0.1915,3.4
4328,67106.06,3.6095,0,0.1912,3.4003
4329,67166.06,3.6097,0,0.1914,3.4001
4330,67226.06,3.6098,0,0.1914,3.4006
4331,67286.06,3.6098,0,0.1915,3.4001
4332,67346.06,3.6098,0,0.1915,3.4004
4333,67406.06,3.6098,0,0.1915,3.4003
4334,67466.06,3.61,0,0.1917,3.4004
4335,67526.06,3.61,0,0.1918,3.4003
4336,67586.06,3.6101,0,0.1918,3.4004
4337,67646.06,3.6101,0,0.1918,3.4004
4338,67706.06,3.6104,0,0.1917,3.4003
4339,67766.06,3.6103,0,0.1917,3.4006
4340,67826.06,3.6104,0,0.1917,3.4004
4341,67886.06,3.6101,0,0.1917,3.4006
4342,67946.06,3.6104,0,0.1918,3.4006
4343,68006.06,3.6104,0,0.1917,3.4006
4344,68066.06,3.6106,0,0.1917,3.4004
4345,68126.06,3.6106,0,0.1917,3.4006
4346,68186.06,3.6104,0,0.1918,3.4006
4347,68246.06,3.6107,0,0.1918,3.4009
4348,68306.06,3.6107,0,0.1917,3.4009
4349,68366.06,3.6107,0,0.1917,3.4008
4350,68426.06,3.6106,0,0.1917,3.4008
4351,68486.06,3.6109,0,0.1918,3.4006
4352,68546.06,3.6107,0,0.1918,3.4006
4353,68606.06,3.6107,0,0.192,3.4006
4354,68666.06,3.6109,0,0.1918,3.4008
4355,68726.06,3.611,0,0.1918,3.4006
4356,68786.06,3.611,0,0.1918,3.4009
4357,68846.06,3.6109,0,0.192,3.4009
4358,68906.06,3.6107,0,0.1917,3.4009