Index,Time [s],Voltage [V],Current [A],Negative electrode potential [V],Positive electrode potential [V]
3251,53887.68,3.5563,5.00221252,0.5853,4.2704
3252,53888.4,3.5453,5.00007629,0.6855,4.217
3253,53889.48,3.5389,4.99977112,0.6896,4.2135
3254,53890.2,3.5346,5.00038147,0.692,4.2105
3255,53891.28,3.5306,4.99977112,0.6937,4.2085
3256,53892.36,3.5273,4.99992371,0.6953,4.206
3257,53893.44,3.5244,5.00038147,0.6963,4.2043
3258,53894.52,3.5213,5.00007629,0.6975,4.2027
3259,53895.24,3.5189,4.99992371,0.6983,4.2012
3260,53896.32,3.5164,4.99977112,0.6995,4.1993
3261,53897.4,3.5143,4.99992371,0.7001,4.1979
3262,53898.48,3.512,4.99992371,0.7009,4.1968
3263,53899.2,3.51,4.99977112,0.7017,4.1957
3264,53900.28,3.508,5.00022888,0.7026,4.1939
3265,53901.36,3.5064,4.99977112,0.7031,4.1933
3266,53902.44,3.5042,5.00007629,0.7041,4.1918
3267,53903.52,3.5026,4.99977112,0.7044,4.1911
3268,53904.24,3.5012,4.99992371,0.7052,4.1896
3269,53905.32,3.4994,4.99977112,0.7055,4.1888
3270,53906.4,3.4977,5.00038147,0.7063,4.1879
3271,53907.48,3.4963,4.99977112,0.7066,4.1872
3272,53908.2,3.4949,4.99977112,0.7074,4.186
3273,53909.28,3.4934,4.99977112,0.7079,4.1852
3274,53910.36,3.4919,5.00007629,0.7082,4.1842
3275,53911.44,3.4907,4.99992371,0.7087,4.1836
3276,53912.52,3.4894,4.99961853,0.7096,4.1826
3277,53913.24,3.4881,4.99992371,0.71,4.182
3278,53914.32,3.4868,4.99992371,0.7103,4.1812
3279,53915.4,3.4856,5.00007629,0.7109,4.1807
3280,53916.48,3.4844,4.99992371,0.7112,4.1794
3281,53917.2,3.4832,4.99992371,0.7115,4.1786
3282,53918.28,3.4821,4.99961853,0.7123,4.1779
3283,53919.36,3.481,5.00007629,0.7125,4.1772
3284,53920.44,3.48,4.99961853,0.7127,4.1761
3285,53921.52,3.4789,5.00022888,0.713,4.1758
3286,53922.24,3.4774,4.99961853,0.7131,4.1747
3287,53923.32,3.4765,4.99992371,0.7136,4.174
3288,53924.4,3.4755,5.00022888,0.7139,4.1731
3289,53925.48,3.4745,5.00022888,0.7144,4.1728
3290,53926.2,3.4737,4.99977112,0.7147,4.1721
3291,53927.28,3.4723,5.00038147,0.715,4.1716
3292,53928.36,3.4713,5.00007629,0.7157,4.1712
3293,53929.44,3.4704,4.99977112,0.7162,4.1707
3294,53930.52,3.4696,5.00038147,0.7163,4.1702
3295,53931.24,3.4687,4.99977112,0.7168,4.1696
3296,53932.32,3.4675,5.00022888,0.7171,4.1688
3297,53933.4,3.4667,4.99992371,0.7177,4.1685
3298,53934.48,3.4659,5.00022888,0.7179,4.1682
3299,53935.2,3.465,5.00022888,0.7185,4.1675
3300,53936.28,3.4641,4.99946594,0.7187,4.1672
3301,53937.36,3.4632,5.00007629,0.7195,4.1667
3302,53938.44,3.4623,5.00022888,0.7197,4.1662
3303,53939.52,3.4612,5.00068665,0.7201,4.1656
3304,53940.24,3.4604,4.99977112,0.7204,4.1651
3305,53941.32,3.4598,4.99992371,0.7209,4.1647
3306,53942.4,3.4588,5.00022888,0.7211,4.164
3307,53943.48,3.4582,4.99992371,0.7214,4.1637
3308,53944.2,3.4574,4.99977112,0.7217,4.1634
3309,53945.28,3.4568,4.99992371,0.722,4.1629
3310,53946.36,3.4559,4.99961853,0.7222,4.1621
3311,53947.44,3.4548,5.00022888,0.7225,4.1621
3312,53948.52,3.454,4.99992371,0.723,4.1616
3313,53949.24,3.4533,5.00022888,0.7233,4.1612
3314,53950.32,3.4525,5.00022888,0.7238,4.1608
3315,53951.4,3.4519,5.00022888,0.7236,4.1602
3316,53952.48,3.4511,5.00007629,0.7241,4.1597
3317,53953.2,3.4501,5.00007629,0.7244,4.1594
3318,53954.28,3.4496,5.00022888,0.7247,4.1586
3319,53955.36,3.4488,5.00007629,0.7251,4.1583
3320,53956.44,3.4482,4.99992371,0.7252,4.158
3321,53957.52,3.4476,5.00007629,0.7255,4.1577
3322,53958.24,3.4467,4.99977112,0.726,4.1573
3323,53959.32,3.4463,5.00022888,0.7262,4.1569
3324,53960.4,3.4453,5.00007629,0.7263,4.1565
3325,53961.48,3.4447,5.00038147,0.7267,4.1561
3326,53962.2,3.4443,4.99977112,0.727,4.1557
3327,53963.28,3.4437,5.00007629,0.7274,4.1554
3328,53964.36,3.443,5.00007629,0.7273,4.1548
3329,53965.44,3.4423,5.00022888,0.7276,4.1543
3330,53966.52,3.4417,4.99977112,0.7279,4.154
3331,53967.24,3.4411,5.00007629,0.7282,4.1538
3332,53968.32,3.4403,4.99992371,0.7282,4.1534
3333,53969.4,3.44,5.00007629,0.7286,4.153
3334,53970.48,3.4394,4.99992371,0.7289,4.1529
3335,53971.2,3.4385,4.99977112,0.729,4.1527
3336,53972.28,3.4379,4.99977112,0.7297,4.1522
3337,53973.36,3.4374,4.99992371,0.7297,4.1518
3338,53974.44,3.4371,4.99977112,0.7302,4.1516
3339,53975.52,3.4362,5.00022888,0.7302,4.1511
3340,53976.24,3.4359,4.99992371,0.7303,4.151
3341,53977.32,3.4353,4.99977112,0.7303,4.1502
3342,53978.4,3.4345,5.00022888,0.7306,4.1499
3343,53979.48,3.434,5.00022888,0.7305,4.1497
3344,53980.2,3.4334,5.00022888,0.7308,4.1492
3345,53981.28,3.433,4.99992371,0.7311,4.1487
3346,53982.36,3.4324,4.99977112,0.7316,4.1486
3347,53983.44,3.4318,4.99992371,0.7316,4.1483
3348,53984.52,3.4313,5.00022888,0.7321,4.1481
3349,53985.24,3.4308,4.99992371,0.7321,4.1481
3350,53986.32,3.4301,4.99977112,0.7324,4.1476
3351,53987.4,3.4298,4.99992371,0.7327,4.1476
3352,53988.48,3.4293,4.99992371,0.733,4.147
3353,53989.2,3.4287,5.00022888,0.7335,4.1472
3354,53990.28,3.4282,5.00007629,0.7335,4.1467
3355,53991.36,3.4276,5.00007629,0.7337,4.1464
3356,53992.44,3.4272,5.00007629,0.7343,4.146
3357,53993.52,3.4267,5.00038147,0.734,4.146
3358,53994.24,3.426,5.00007629,0.7344,4.1457
3359,53995.32,3.4257,5.00007629,0.7346,4.1456
3360,53996.4,3.4252,5.00083923,0.7351,4.1454
3361,53997.48,3.4247,4.99992371,0.7352,4.1452
3362,53998.2,3.4243,4.99977112,0.7356,4.1446
3363,53999.28,3.424,4.99961853,0.7356,4.1446
3364,54000.36,3.4234,4.99992371,0.736,4.1443
3365,54001.44,3.4231,4.99961853,0.7362,4.1441
3366,54002.52,3.4223,4.99977112,0.7364,4.144
3367,54003.24,3.4218,4.99992371,0.7365,4.1438
3368,54004.32,3.4215,5.00022888,0.7367,4.1435
3369,54005.4,3.4209,5.00038147,0.737,4.1432
3370,54006.48,3.4208,5.00007629,0.7371,4.143
3371,54007.2,3.42,5.00022888,0.7373,4.1425
3372,54008.28,3.4197,4.99992371,0.7375,4.1422
3373,54009.36,3.4191,5.00022888,0.7376,4.1422
3374,54010.44,3.4189,4.99977112,0.7378,4.1421
3375,54011.52,3.4183,5.00007629,0.7379,4.1419
3376,54012.24,3.4179,5.00022888,0.7383,4.1414
3377,54013.32,3.4174,4.99992371,0.7386,4.1414
3378,54014.4,3.4171,4.99992371,0.7389,4.1411
3379,54015.48,3.4166,4.99961853,0.7389,4.1411
3380,54016.2,3.4162,4.99961853,0.7391,4.1406
3381,54017.28,3.4157,4.99992371,0.7391,4.1405
3382,54018.36,3.4151,4.99977112,0.7397,4.1402
3383,54019.44,3.4148,4.99992371,0.7395,4.14
3384,54020.52,3.4144,4.99992371,0.7399,4.1397
3385,54021.24,3.4139,4.99977112,0.7402,4.1392
3386,54022.32,3.4137,4.99992371,0.7403,4.1392
3387,54023.4,3.4133,4.99977112,0.7402,4.1387
3388,54024.48,3.4128,4.99977112,0.74,4.1381
3389,54025.2,3.4124,5.00007629,0.7402,4.1378
3390,54026.28,3.4121,5.00038147,0.7403,4.1376
3391,54027.36,3.4116,5.00053406,0.7405,4.1375
3392,54028.44,3.4112,5.00007629,0.741,4.1373
3393,54029.52,3.4107,5.00022888,0.741,4.1373
3394,54030.24,3.4102,4.99992371,0.7413,4.137
3395,54031.32,3.4098,4.99992371,0.7414,4.137
3396,54032.4,3.4098,4.99992371,0.7418,4.1367
3397,54033.48,3.4092,5.00022888,0.7416,4.1365
3398,54034.2,3.4087,4.99992371,0.7419,4.136
3399,54035.28,3.4086,5.00007629,0.7424,4.1362
3400,54036.36,3.4081,5.00053406,0.7426,4.1362
3401,54037.44,3.4076,4.99977112,0.7429,4.1359
3402,54037.44,3.4075,5.00007629,0.7427,4.1359
3403,54037.8,3.5482,0,0.7427,4.1359
3404,54038.16,3.5589,0,0.6446,4.1868
3405,54039.24,3.5647,0,0.6412,4.1898
3406,54040.32,3.5688,0,0.6397,4.1923
3407,54041.4,3.5717,0,0.6385,4.1944
3408,54042.48,3.5741,0,0.6368,4.1953
3409,54043.2,3.5764,0,0.636,4.1966
3410,54044.28,3.5785,0,0.635,4.1979
3411,54045.36,3.5802,0,0.6344,4.1996
3412,54046.44,3.5822,0,0.6342,4.2009
3413,54047.16,3.5837,0,0.6335,4.2022
3414,54048.24,3.5853,0,0.6331,4.203
3415,54049.32,3.5866,0,0.6325,4.2039
3416,54050.4,3.588,0,0.6325,4.2047
3417,54051.48,3.5894,0,0.6317,4.2058
3418,54052.2,3.5906,0,0.6314,4.2066
3419,54053.28,3.5918,0,0.6311,4.2076
3420,54054.36,3.5927,0,0.6307,4.2082
3421,54055.44,3.5941,0,0.6304,4.2092
3422,54056.16,3.595,0,0.6301,4.2097
3423,54057.24,3.5962,0,0.6296,4.2105
3424,54058.32,3.597,0,0.6292,4.2111
3425,54059.4,3.5982,0,0.629,4.2117
3426,54060.48,3.5993,0,0.6285,4.2124
3427,54061.2,3.6002,0,0.6284,4.2132
3428,54062.28,3.601,0,0.628,4.2138
3429,54063.36,3.6019,0,0.6277,4.2144
3430,54064.44,3.6028,0,0.6274,4.2149
3431,54065.16,3.6037,0,0.6272,4.2155
3432,54066.24,3.6043,0,0.6268,4.2162
3433,54067.32,3.6051,0,0.6266,4.2165
3434,54068.4,3.6059,0,0.6265,4.2171
3435,54069.12,3.6066,0,0.6265,4.2176
3436,54070.2,3.6074,0,0.6261,4.2184
3437,54071.28,3.6081,0,0.6258,4.2189
3438,54072.36,3.6089,0,0.6257,4.2192
3439,54073.44,3.6095,0,0.6253,4.2194
3440,54074.16,3.6101,0,0.625,4.2202
3441,54075.24,3.611,0,0.625,4.2205
3442,54076.32,3.6115,0,0.6247,4.2208
3443,54077.4,3.6121,0,0.6244,4.2216
3444,54078.12,3.6127,0,0.6244,4.2219
3445,54079.2,3.6136,0,0.6239,4.2225
3446,54080.28,3.6141,0,0.6239,4.2229
3447,54081.36,3.6149,0,0.6237,4.2232
3448,54082.44,3.6152,0,0.6237,4.2237
3449,54083.16,3.6156,0,0.6234,4.2238
3450,54084.24,3.6164,0,0.6231,4.2243
3451,54085.32,3.617,0,0.623,4.2245
3452,54086.4,3.6175,0,0.6228,4.2249
3453,54087.48,3.6179,0,0.6226,4.2251
3454,54088.2,3.6187,0,0.6222,4.2256
3455,54089.28,3.6191,0,0.622,4.226
3456,54090.36,3.6196,0,0.6218,4.226
3457,54091.44,3.6202,0,0.6217,4.2262
3458,54092.16,3.6205,0,0.6217,4.2268
3459,54093.24,3.6211,0,0.6215,4.2273
3460,54094.32,3.6214,0,0.6214,4.2275
3461,54095.4,3.6219,0,0.621,4.2278
3462,54096.12,3.6223,0,0.621,4.2281
3463,54097.2,3.6228,0,0.6207,4.2283
3464,54097.56,3.6228,0,0.6207,4.2287
3465,54097.56,3.6231,0,0.6207,4.2287
3466,54127.08,3.6332,0,0.6168,4.2343
3467,54177.84,3.6432,0,0.6112,4.2389
3468,54237.96,3.65,0,0.609,4.2431
3469,54298.08,3.6544,0,0.6067,4.2451
3470,54357.84,3.6577,0,0.6048,4.2461
3471,54417.96,3.6594,0,0.6053,4.2486
3472,54477.72,3.6609,0,0.6043,4.2488
3473,54537.84,3.662,0,0.6039,4.2488
3474,54597.96,3.6625,0,0.6034,4.2493
3475,54658.08,3.6634,0,0.6028,4.2488
3476,54717.84,3.6638,0,0.6024,4.2491
3477,54777.96,3.6643,0,0.6002,4.2474
3478,54838.08,3.6646,0,0.6028,4.2504
3479,54897.84,3.6649,0,0.6018,4.2493
3480,54957.96,3.6649,0,0.6016,4.2491
3481,55018.08,3.6652,0,0.601,4.2489
3482,55077.84,3.6654,0,0.6013,4.2494
3483,55137.96,3.6655,0,0.6016,4.2499
3484,55198.08,3.6657,0,0.6018,4.2504
3485,55257.84,3.6657,0,0.6021,4.2505
3486,55317.96,3.6658,0,0.6004,4.2489
3487,55377.72,3.6661,0,0.6015,4.2507
3488,55437.84,3.6663,0,0.602,4.2509
3489,55497.96,3.6663,0,0.6012,4.2502
3490,55558.08,3.6664,0,0.6005,4.2497
3491,55617.84,3.6663,0,0.6013,4.2505
3492,55677.96,3.6666,0,0.6016,4.2509
3493,55738.08,3.6666,0,0.6013,4.2507
3494,55797.84,3.6667,0,0.6012,4.2505
3495,55857.96,3.6667,0,0.601,4.2504
3496,55918.08,3.6669,0,0.6008,4.2504
3497,55977.84,3.6667,0,0.6002,4.2499
3498,56037.96,3.6669,0,0.5997,4.2491
3499,56098.08,3.6669,0,0.5993,4.2489
3500,56157.84,3.667,0,0.6007,4.2505
3501,56217.96,3.667,0,0.6008,4.251
3502,56277.72,3.6672,0,0.6005,4.2505
3503,56337.84,3.6674,0,0.6007,4.2512
3504,56397.96,3.6672,0,0.6001,4.2501
3505,56458.08,3.6672,0,0.6008,4.2509
3506,56517.84,3.6674,0,0.6005,4.2507
3507,56577.96,3.6675,0,0.6002,4.2502
3508,56638.08,3.6675,0,0.5983,4.2485
3509,56697.84,3.6674,0,0.5997,4.2499
3510,56757.96,3.6675,0,0.5996,4.2502
3511,56818.08,3.6675,0,0.5993,4.2494
3512,56877.84,3.6678,0,0.5997,4.2502
3513,56937.96,3.6675,0,0.5985,4.2485
3514,56998.08,3.6677,0,0.5991,4.2496
3515,57057.84,3.6677,0,0.5994,4.2499
3516,57117.96,3.6677,0,0.5981,4.2485
3517,57177.72,3.6677,0,0.5991,4.2501
3518,57237.84,3.6678,0,0.5994,4.2502
3519,57297.96,3.6678,0,0.5991,4.2499
3520,57358.08,3.6677,0,0.5993,4.2499
3521,57417.84,3.668,0,0.5996,4.2504
3522,57477.96,3.668,0,0.5986,4.2494
3523,57538.08,3.6678,0,0.5996,4.2505
3524,57597.84,3.6678,0,0.5994,4.2504
3525,57637.44,3.668,0,0.5986,4.2493