Time [s],Voltage [V],Current [A],Negative electrode potential [V],Positive electrode potential [V]
155641.5938,3.5517137,0.0,0.16440076,3.7161145
155641.6422,3.551599,-2.89e-10,0.16441984,3.7160189
155641.644,3.5451741,-0.00012714646900000002,0.16667238,3.7118466
155641.6442,3.5430095,-0.001149944086,0.1677146,3.7107241
155641.6446,3.541692,-0.0011499472449999998,0.16808462,3.7097766
155641.6478,3.5406804,-0.001149994476,0.16819914,3.7088795
155641.734,3.5396688,-0.001150003548,0.16814189,3.7078106
155643.4466,3.5386569,-0.001150010058,0.16844727,3.7071042
155646.2544,3.5376453,-0.001150020789,0.16884811,3.7064934
155650.1972,3.5365953,-0.001150028692,0.16928712,3.7058825
155654.6318,3.5355456,-0.0011500334009999999,0.16980247,3.705348
155659.2576,3.5344577,-0.0011500350720000001,0.1702224,3.70468
155664.8472,3.5334268,-0.001150040324,0.17069958,3.7041264
155670.6688,3.5323961,-0.001150038223,0.17111951,3.7035155
155676.2202,3.5313652,-0.001150039223,0.17155851,3.7029238
155682.7102,3.5303342,-0.001150038953,0.17197843,3.7023127
155689.5656,3.5292654,-0.001150042261,0.17241745,3.7016828
155696.9724,3.5281963,-0.001150040006,0.17297098,3.7011673
155704.7128,3.5271847,-0.001150042897,0.17337181,3.7005565
155712.0984,3.5261538,-0.001150046012,0.17388716,3.7000411
155720.9016,3.5251424,-0.001150043959,0.17440252,3.6995449
155729.2594,3.5241306,-0.001150041568,0.17493697,3.6990676
155738.7928,3.523119,-0.001150044047,0.17528054,3.6983995
155748.1084,3.5221074,-0.0011500420879999999,0.17573865,3.6978459
155758.8308,3.5210955,-0.001150041324,0.17615856,3.6972542
155769.8916,3.5200267,-0.001150045692,0.17676936,3.6967959
155782.5146,3.5189958,-0.001150046784,0.17722745,3.6962233
155794.3548,3.517946,-0.0011500463729999999,0.17770463,3.6956506
155808.0816,3.5169344,-0.001150045537,0.17833452,3.6952689
155821.6406,3.5159035,-0.0011500440860000001,0.17883079,3.6947343
155836.2278,3.5148919,-0.001150048497,0.17930797,3.6941998
155852.136,3.5138037,-0.001150048119,0.17967063,3.6934743
155870.4222,3.5127921,-0.001150048516,0.18024325,3.6930354
155888.3154,3.5117421,-0.001150047461,0.18073952,3.6924818
155909.0018,3.5107114,-0.001150046887,0.18125488,3.6919663
155929.589,3.5095851,-0.0011500457799999998,0.18177024,3.6913555
155953.3378,3.5085735,-0.0011500491909999999,0.1822665,3.69084
155974.4206,3.5075619,-0.001150052839,0.18278188,3.6903439
155996.9658,3.5065503,-0.0011500542860000001,0.18322088,3.6897712
156020.31,3.5055194,-0.001150052531,0.18373623,3.6892557
156044.4704,3.5044887,-0.0011500522849999999,0.18415616,3.6886449
156069.2608,3.5034387,-0.001150051719,0.18474786,3.6881866
156096.501,3.502408,-0.001150051973,0.18518688,3.6875949
156120.7478,3.5013962,-0.001150052041,0.18568315,3.6870794
156147.311,3.5003846,-0.001150051516,0.18621759,3.6866021
156175.3954,3.499373,-0.00115005247,0.18673295,3.686106
156202.6134,3.498342,-0.00115005399,0.18709561,3.6854377
156229.4282,3.4973304,-0.0011500516750000001,0.18776366,3.6850941
156257.3448,3.4962997,-0.001150051124,0.18825993,3.6845596
156286.0823,3.4952879,-0.0011500493089999998,0.18867986,3.6839678
156314.0747,3.4942765,-0.001150050526,0.18925248,3.6835289
156342.2911,3.4932647,-0.0011500495719999999,0.18974875,3.6830134
156371.5691,3.492234,-0.001150050601,0.19022593,3.6824598
156399.5977,3.4912221,-0.001150052492,0.19077946,3.6820016
156428.7307,3.4902105,-0.001150051841,0.19127573,3.6814864
156457.6675,3.4891989,-0.0011500529939999999,0.19175293,3.6809518
156487.9971,3.4881871,-0.001150054418,0.1923828,3.6805699
156517.5027,3.4871757,-0.0011500539380000002,0.19287907,3.6800547
156541.5941,3.4867175,-0.0011500546080000001,0.19316538,3.6798828
156541.6423,3.4992504,0.0,0.18942426,3.6886747
156544.1103,3.5002704,0.0,0.18881346,3.6890838
156547.8515,3.5013013,0.0,0.18829811,3.6895993
156552.8421,3.502332,0.0,0.18791637,3.6902483
156558.3377,3.503382,0.0,0.1875537,3.6909356
156564.9521,3.5044317,0.0,0.1871147,3.6915464
156572.6815,3.5054433,0.0,0.18673295,3.6921763
156580.2553,3.5064552,0.0,0.18629394,3.692749
156589.2241,3.5074668,0.0,0.18593128,3.693398
156598.5775,3.5084975,0.0,0.1854541,3.6939516
156608.8515,3.5095091,0.0,0.18505326,3.6945624
156621.0705,3.5105209,0.0,0.18459517,3.695116
156632.7015,3.5115325,0.0,0.1842325,3.695765
156645.6711,3.5125635,0.0,0.18367897,3.6962423
156662.3037,3.5135942,0.0,0.1831827,3.6967769
156680.3889,3.5146441,0.0,0.18268643,3.6973305
156700.8685,3.5156558,0.0,0.18224743,3.6979032
156723.1977,3.5166674,0.0,0.18163663,3.6983039
156748.4513,3.517698,0.0,0.18115945,3.6988575
156779.8549,3.5187099,0.0,0.18064408,3.6993539
156816.6739,3.5197215,0.0,0.18018599,3.6999075
156861.6039,3.5207524,0.0,0.17970881,3.7004611
156920.921,3.5218976,0.0,0.17913619,3.7010338
156920.9756,3.5208859,0.0,0.17967063,3.7005565
156932.2624,3.5218976,0.0,0.17913619,3.7010338
156992.2624,3.5225468,0.0,0.17877352,3.7013202
157052.2624,3.5227757,0.0,0.17869718,3.7014728
157112.2624,3.523272,0.0,0.17842996,3.7017019
157172.2624,3.5235775,0.0,0.17831543,3.7018929
157232.2624,3.5238636,0.0,0.17818183,3.7020454
157292.2624,3.5244365,0.0,0.17795277,3.7023892
157352.2624,3.5246847,0.0,0.17795277,3.7026374
157412.2624,3.5247035,0.0,0.17780007,3.7025037
157472.2624,3.5250092,0.0,0.1777619,3.7027709
157532.2624,3.5250092,0.0,0.17768554,3.7026947
157592.2625,3.5251617,0.0,0.17764737,3.7028091
157652.2625,3.525219,0.0,0.17762829,3.7028472
157712.2625,3.52562,0.0,0.1774565,3.7030764
157772.2625,3.5254862,0.0,0.17751376,3.7030001
157787.6449,3.5256963,0.0,0.1774565,3.7031527
