Time [s],Voltage [V],Current [A],Negative electrode potential [V],Positive electrode potential [V]
118050.5262,4.044136,0.0,0.092365146,4.1365013
118050.5746,4.0440788,-7.36e-10,0.092479669,4.1365585
118050.5764,4.036747,-0.00012715355100000001,0.095079847,4.1318269
118050.5768,4.0346298,-0.001149981683,0.095724516,4.1303544
118050.5782,4.0335803,-0.001149980753,0.096068092,4.1296482
118050.5938,4.0325303,-0.001150009429,0.096010827,4.128541
118050.9538,4.0314612,-0.001150013177,0.095896304,4.1273575
118052.5566,4.0304112,-0.0011500203209999999,0.096488006,4.1268992
118055.0744,4.0293422,-0.001150028458,0.096965194,4.1263075
118057.9056,4.0283117,-0.0011500344680000002,0.097346939,4.1256585
118061.5832,4.0272999,-0.0011500392020000001,0.09763325,4.1249332
118065.6306,4.026288,-0.001150041905,0.09822496,4.1245131
118070.253,4.0252767,-0.001150044054,0.098492183,4.1237688
118074.6554,4.0242648,-0.00115004671,0.098969363,4.1232343
118080.1066,4.0231962,-0.0011500436460000001,0.099312939,4.122509
118086.1196,4.0221653,-0.0011500470570000002,0.09977103,4.1219363
118091.872,4.021153,-0.0011500468500000001,0.10011461,4.1212678
118098.1488,4.0201225,-0.001150048365,0.10049635,4.1206188
118105.1938,4.0190535,-0.001150047896,0.1008781,4.1199317
118112.2752,4.0180416,-0.001150049764,0.10141254,4.1194544
118120.2482,4.016973,-0.001150050257,0.1019279,4.1189008
118127.9718,4.015923,-0.001150050627,0.10229056,4.1182137
118137.0574,4.0148926,-0.001150054883,0.10265322,4.1175456
118146.1468,4.0138807,-0.0011500547080000002,0.10309223,4.1169729
118155.5326,4.0128307,-0.001150051002,0.10347398,4.1163049
118165.6756,4.0118194,-0.001150050562,0.1038939,4.1157131
118175.983,4.0108075,-0.001150048473,0.10437108,4.1151786
118186.81,4.0097575,-0.0011500485499999998,0.10461922,4.1143765
118199.335,4.0087266,-0.001150051226,0.10507731,4.1138039
118212.8414,4.0076575,-0.001150048489,0.10545906,4.1131167
118225.6841,4.0066462,-0.0011500504810000001,0.10572628,4.1123724
118238.9027,4.0056343,-0.001150053534,0.10622256,4.1118569
118253.1519,4.0045848,-0.0011500533699999999,0.10662339,4.111208
118270.3087,4.0035725,-0.001150052445,0.10681426,4.1103868
118287.7923,4.002542,-0.001150051046,0.10727236,4.1098142
118304.5565,4.0015302,-0.001150053436,0.10757776,4.109108
118322.8133,4.0005188,-0.00115005367,0.10784498,4.1083636
118342.1419,3.999507,-0.001150055024,0.10813129,4.1076384
118362.7329,3.9984951,-0.001150055909,0.10836034,4.1068554
118383.6781,3.9974835,-0.001150054509,0.10868482,4.1061683
118406.2197,3.9964719,-0.0011500534630000002,0.10883752,4.1053095
118430.1781,3.99546,-0.001150056559,0.10904748,4.1045074
118453.3659,3.9944484,-0.001150054341,0.10918109,4.1036296
118477.4255,3.9933028,-0.001150055683,0.10954375,4.1028466
118508.5111,3.9922915,-0.001150057025,0.10963919,4.1019306
118533.5891,3.9912796,-0.001150054731,0.10971554,4.1009951
118559.9889,3.9902298,-0.00115005615,0.10992549,4.1001554
118587.4989,3.989218,-0.001150054469,0.11002094,4.0992389
118618.0551,3.9881873,-0.00115005509,0.1102118,4.0983992
118646.4122,3.9871755,-0.001150058201,0.11024998,4.0974255
118676.3232,3.9861445,-0.0011500566299999999,0.11038359,4.0965281
118705.6092,3.9851329,-0.001150054573,0.11047903,4.095612
118732.8792,3.9841211,-0.0011500584179999999,0.11055538,4.0946765
118765.7116,3.9831095,-0.001150056213,0.11076534,4.0938749
118792.4624,3.9820786,-0.001150059501,0.11086078,4.0929394
118825.0114,3.9810667,-0.001150059356,0.11086078,4.0919275
118854.7882,3.9799981,-0.0011500606529999998,0.11105165,4.0910497
118886.3266,3.978986,-0.0011500592409999998,0.11110891,4.090095
118917.8534,3.9779551,-0.0011500587989999999,0.11110891,4.0890641
118947.558,3.9769247,-0.0011500593999999999,0.11129978,4.0882244
118950.5262,3.9773061,-0.001150059162,0.11110891,4.0884151
118950.5744,3.989764,0.0,0.10742506,4.0971889
118950.5756,3.9907682,0.0,0.10746323,4.0982313
118950.5758,3.989367,0.0,0.1075014,4.0968685
118951.4894,3.9904776,0.0,0.10713875,4.0976162
118953.3918,3.9915466,0.0,0.10647069,4.0980172
118956.1204,3.9925582,0.0,0.10593624,4.0984945
118959.3454,3.9935699,0.0,0.1055545,4.0991244
118963.316,3.9946003,0.0,0.10490552,4.0995059
118967.7378,3.9956126,0.0,0.10450469,4.1001172
118972.4854,3.9966238,0.0,0.1038939,4.1005177
118978.261,3.9976547,0.0,0.10351215,4.1011667
118983.987,3.9986663,0.0,0.10309223,4.1017585
118990.854,3.9996779,0.0,0.10255779,4.1022358
118998.6184,4.0007281,0.0,0.10204243,4.1027703
119006.325,4.0018158,0.0,0.10150798,4.1033239
119015.9266,4.0028658,0.0,0.10095445,4.1038203
119025.174,4.0038776,0.0,0.10040092,4.1042786
119035.4934,4.0049086,0.0,0.099828295,4.1047368
119047.3914,4.0059581,0.0,0.099255674,4.1052136
119059.7239,4.0070081,0.0,0.09885484,4.1058631
119073.9257,4.0080199,0.0,0.098091349,4.106111
119089.5881,4.0090313,0.0,0.097575985,4.1066074
119107.0535,4.0100431,0.0,0.097098805,4.107142
119125.7349,4.0110736,0.0,0.09641166,4.1074853
119150.0229,4.0120854,0.0,0.095915392,4.1080008
119175.2435,4.0131164,0.0,0.095285505,4.1084018
119208.6329,4.0141473,0.0,0.094789237,4.1089363
119242.8687,4.0151587,0.0,0.094292969,4.1094518
119298.3039,4.0161896,0.0,0.093720347,4.10991
119358.3041,4.0166097,0.0,0.093357682,4.1099672
119395.2827,4.017621,0.0,0.092975937,4.1105971
119455.2829,4.0176401,0.0,0.092918679,4.110559
119508.937,4.018652,0.0,0.092536934,4.1111889
119568.9372,4.0185757,0.0,0.092517845,4.1110935
119628.9374,4.0189953,0.0,0.092346057,4.1113415
119688.9376,4.0192437,0.0,0.092307881,4.1115518
119748.9378,4.0195684,0.0,0.092078835,4.1116471
119808.938,4.0198164,0.0,0.092002481,4.1118188
119868.9382,4.0199118,0.0,0.092040658,4.1119523
119928.9383,4.0200839,0.0,0.092078835,4.1121626
119988.9385,4.0201025,0.0,0.092002481,4.1121049
120048.9387,4.0202365,0.0,0.092040658,4.112277
120108.9389,4.0203319,0.0,0.091964312,4.1122961
120153.5765,4.0205226,0.0,0.091907047,4.1124296
