Time [s],Voltage [V],Current [A],Negative electrode potential [V],Positive electrode potential [V]
171311.0534,3.1818445,0,0.40749711,3.5893416
171311.1018,3.18173,-9.47E-07,0.40745893,3.5891891
171311.1036,3.1743703,-0.127131502,0.41015112,3.5845215
171311.104,3.1718805,-1.150016001,0.41095191,3.5828323
171311.1056,3.1708302,-1.149985904,0.41137186,3.5822022
171311.1116,3.1697998,-1.150001191,0.41160089,3.5814006
171311.131,3.1686351,-1.150001327,0.41148636,3.5801215
171311.1774,3.1676042,-1.150004985,0.41110462,3.5787089
171311.2466,3.1665542,-1.149999685,0.41110462,3.5776589
171311.4358,3.1654854,-1.150003925,0.41093284,3.5764182
171312.0482,3.1644545,-1.150007505,0.41102827,3.5754828
171313.0368,3.1634235,-1.150013298,0.41135275,3.5747764
171314.3932,3.1623547,-1.150021052,0.41182995,3.5741847
171315.9454,3.1612859,-1.150024992,0.41230711,3.5735929
171317.8212,3.160255,-1.150024968,0.41268888,3.5729439
171319.6914,3.1592433,-1.150027916,0.41318515,3.5724285
171321.6048,3.1582315,-1.150029811,0.41368142,3.571913
171323.6504,3.1571627,-1.150034067,0.41436854,3.5715313
171325.7336,3.1560175,-1.150037469,0.41490301,3.5709205
171328.0602,3.1549485,-1.150038051,0.41539928,3.5703478
171330.3696,3.1539369,-1.150037587,0.4159528,3.5698895
171332.4964,3.1529059,-1.150037282,0.41662085,3.5695269
171334.9872,3.1518371,-1.150038479,0.4171553,3.5689924
171337.3596,3.1507492,-1.150039903,0.41780427,3.5685534
171339.8604,3.1497183,-1.150042516,0.41847232,3.5681906
171342.0842,3.1486876,-1.150041132,0.41898769,3.5676754
171344.6264,3.1476758,-1.150043142,0.41969392,3.5673697
171346.8456,3.1466641,-1.150041684,0.42026654,3.5669308
171349.2902,3.1456335,-1.150042974,0.42097276,3.5666063
171351.7622,3.1445837,-1.150041531,0.42152631,3.5661099
171354.3424,3.1435337,-1.150042192,0.42221346,3.5657473
171356.7818,3.142503,-1.150042577,0.42293876,3.5654418
171359.6318,3.1414914,-1.150043569,0.42362592,3.5651174
171362.1792,3.1403842,-1.15004521,0.42429397,3.5646782
171364.6436,3.1393726,-1.150042797,0.42498112,3.5643537
171367.484,3.1382847,-1.150043157,0.42568734,3.563972
171370.2372,3.1372728,-1.150042669,0.42654628,3.5638192
171372.8678,3.1362231,-1.150045415,0.4272525,3.5634756
171375.6464,3.1352115,-1.150046544,0.42795873,3.5631702
171378.2334,3.1341233,-1.150044212,0.42864588,3.5627692
171381.227,3.1330926,-1.150044605,0.42948574,3.5625784
171383.8636,3.132081,-1.150046179,0.43028739,3.5623684
171386.7616,3.1310694,-1.150045411,0.43097454,3.5620439
171389.4536,3.1300578,-1.15004345,0.43173802,3.5617957
171392.2796,3.129046,-1.15004518,0.43259695,3.5616429
171394.967,3.1279962,-1.150045734,0.43326503,3.5612612
171398.1642,3.1269462,-1.150045338,0.43410486,3.5610511
171400.9224,3.1259346,-1.150042944,0.43484926,3.5607839
171403.8376,3.1249042,-1.150043252,0.43565094,3.560555
171406.8194,3.1238923,-1.150046304,0.43649077,3.5603831
171409.8614,3.1228807,-1.150044586,0.43723518,3.5601158
171412.8838,3.1218688,-1.150045248,0.43805593,3.5599248
171415.59,3.1208575,-1.150046715,0.43885761,3.559715
171418.8602,3.1198268,-1.15004773,0.43960202,3.5594287
171421.7496,3.1187387,-1.150045884,0.4404037,3.5591424
171425.2388,3.1177077,-1.150044839,0.44135806,3.5590658
171428.5844,3.1166773,-1.150045493,0.44217882,3.558856
171431.6542,3.1156654,-1.15004891,0.44294229,3.5586078
171434.6364,3.1146348,-1.150046404,0.4438394,3.5584741
171438.1916,3.1135848,-1.15004611,0.44456473,3.5581496
171441.6314,3.1125352,-1.150048649,0.44546184,3.557997
171445.041,3.1115234,-1.150048536,0.4463971,3.5579205
171448.4036,3.1104927,-1.150048472,0.44719878,3.5576916
171451.7594,3.1094811,-1.150046219,0.44803861,3.5575197
171455.08,3.1084692,-1.150047279,0.44884029,3.5573096
171458.8124,3.1073625,-1.15004621,0.44975647,3.5571189
171462.6638,3.1063509,-1.150043986,0.45074901,3.5570998
171466.5072,3.1053391,-1.150046288,0.45164612,3.5569851
171470.0784,3.1042128,-1.150046623,0.45256233,3.5567751
171474.407,3.1032012,-1.150045657,0.45347852,3.5566797
171478.2082,3.1020939,-1.150047917,0.4544138,3.5565078
171482.733,3.1010826,-1.15004553,0.45527273,3.5563552
171486.4744,3.100071,-1.150048721,0.45618892,3.5562599
171490.592,3.0990591,-1.150049085,0.45706692,3.5561261
171494.9314,3.0979712,-1.150049033,0.45796403,3.5559351
171499.341,3.0969596,-1.150051659,0.45888025,3.5558398
171503.8666,3.095948,-1.150050811,0.45977733,3.5557253
171508.7572,3.094898,-1.150049785,0.46073171,3.5556297
171513.627,3.0938673,-1.150051231,0.4617815,3.5556488
171518.2602,3.0928557,-1.150048985,0.46264043,3.5554962
171523.7948,3.0917487,-1.150050773,0.46351844,3.5552671
171529.4558,3.090718,-1.150049368,0.46453008,3.555248
171535.0742,3.0896301,-1.150050789,0.46552262,3.5551527
171541.4766,3.0885994,-1.15004999,0.46651515,3.5551145
171547.7308,3.0875876,-1.150051729,0.46745044,3.555038
171554.0712,3.086576,-1.150049466,0.46838573,3.5549617
171560.431,3.0855644,-1.150050862,0.46928284,3.5548472
171567.4272,3.0845335,-1.150050906,0.47019902,3.5547326
171575.7266,3.0835028,-1.150050747,0.47126791,3.5547707
171583.4158,3.0824721,-1.150053138,0.4722032,3.5546753
171592.036,3.0814605,-1.150054962,0.47304302,3.5545034
171600.7782,3.0804489,-1.150053036,0.47394013,3.554389
171610.9389,3.0794182,-1.150051246,0.47485635,3.5542746
171621.4743,3.07833,-1.150050482,0.47582978,3.5541599
171632.5263,3.0773187,-1.15005088,0.47672689,3.5540454
171643.6193,3.0763068,-1.150050697,0.47756675,3.5538735
171655.1019,3.0752761,-1.150050216,0.47831115,3.5535872
171666.0845,3.0742264,-1.150049105,0.47915098,3.5533774
171678.1151,3.0731955,-1.150050683,0.47987631,3.5530717
171689.6519,3.0721841,-1.15005519,0.48062071,3.5528047
171701.2119,3.0711722,-1.150055489,0.48128876,3.5524609
171712.0735,3.0701034,-1.150054143,0.48220497,3.5523083
171723.7927,3.0690727,-1.150053154,0.4828921,3.5519648
171734.5261,3.0680609,-1.150052847,0.4836556,3.5517166
171744.8589,3.0670493,-1.150051479,0.4844,3.5514493
171754.9007,3.0660377,-1.150049194,0.48518258,3.5512202
171765.8635,3.065007,-1.150050949,0.48585063,3.5508575
171777.0181,3.0639951,-1.150049084,0.48661414,3.5506094
171786.7285,3.0629644,-1.150048103,0.48749214,3.5504565
171796.5873,3.0619528,-1.150052033,0.48812205,3.5500748
171805.7057,3.0609412,-1.150050675,0.48888552,3.5498266
171816.4763,3.0599294,-1.15005116,0.48961085,3.5495403
171825.9877,3.0588987,-1.150052222,0.49039343,3.5492921
171835.9455,3.0578489,-1.150052021,0.49125236,3.5491014
171845.5425,3.0568373,-1.150049984,0.49199677,3.5488341
171855.1553,3.0557113,-1.150050949,0.49283659,3.5485477
171865.9615,3.0546994,-1.15005179,0.49363828,3.5483377
171875.3259,3.0536494,-1.150050876,0.49449721,3.5481467
171884.6347,3.0525997,-1.150053445,0.49524161,3.5478413
171894.2935,3.0515881,-1.150051892,0.49604329,3.5476313
171903.1915,3.0505764,-1.150050198,0.49684495,3.5474215
171912.5543,3.0495458,-1.150049405,0.49760845,3.5471542
171921.6645,3.0485339,-1.150049381,0.49844828,3.5469823
171930.7039,3.0475223,-1.150051512,0.49915451,3.5466769
171939.4627,3.0464725,-1.150051141,0.50003254,3.5465052
171948.4431,3.0454609,-1.150051853,0.50079602,3.546257
171957.7303,3.0444493,-1.150051866,0.50157857,3.5460279
171966.7543,3.0434375,-1.150051214,0.50236118,3.5457988
171975.2019,3.0424261,-1.150051548,0.50327736,3.5457034
171984.5583,3.0414143,-1.150051645,0.50394541,3.5453596
171993.5623,3.0403836,-1.150052102,0.50484252,3.5452261
172002.3111,3.039372,-1.150049509,0.50572056,3.5450926
172010.8883,3.0383604,-1.150049723,0.50650311,3.5448635
172019.8301,3.0373106,-1.150051078,0.50732386,3.5446343
172028.6751,3.0362606,-1.150050593,0.50814462,3.5444052
172037.3321,3.035249,-1.150048691,0.50881273,3.5440617
172046.0753,3.0342181,-1.150047344,0.50970978,3.5439279
172054.6717,3.0331683,-1.15004595,0.51058781,3.5437562
172063.5247,3.0321567,-1.150046804,0.51142764,3.5435843
172072.0053,3.031126,-1.150046966,0.51215297,3.5432789
172081.2117,3.0300953,-1.150046684,0.51306915,3.5431645
172089.3583,3.0290837,-1.150048965,0.51388991,3.5429735
172097.5405,3.0280147,-1.150046567,0.51465344,3.5426681
172106.5555,3.027003,-1.150048323,0.51560777,3.5426109
172115.0121,3.0259914,-1.150049345,0.51629496,3.5422864
172123.4451,3.0249605,-1.150048705,0.51719207,3.5421526
172131.8763,3.0238917,-1.15004838,0.51795554,3.5418472
172140.3753,3.0228801,-1.150050794,0.51881444,3.5416946
172148.7251,3.0218685,-1.150049893,0.51957798,3.5414464
172157.2521,3.0208187,-1.150050259,0.52045596,3.5412745
172165.0665,3.0197496,-1.150050916,0.52129585,3.5410454
172173.3343,3.018738,-1.150047329,0.52215475,3.5408928
172181.9851,3.0177264,-1.150047456,0.52299458,3.5407209
172189.9159,3.0166957,-1.150047417,0.52389169,3.5405874
172198.3999,3.0156648,-1.150049102,0.52475065,3.5404155
172206.2537,3.0146532,-1.150049793,0.52543777,3.540091
172211.0537,3.014329,-1.150050572,0.52591497,3.5402439
172211.1019,3.0288365,0,0.52184933,3.5506859
172211.1477,3.0298672,0,0.52181119,3.5516784
172211.2049,3.0308981,0,0.52192569,3.5528238
172211.2933,3.0319099,0,0.52209747,3.5540073
172211.4285,3.0329404,0,0.52209747,3.555038
172211.7059,3.0339713,0,0.5221166,3.556088
172212.1825,3.0350595,0,0.52200204,3.5570614
172213.1041,3.0361092,0,0.52179211,3.5579014
172214.1699,3.0371401,0,0.5214867,3.5586269
172215.6667,3.038228,0,0.52110493,3.5593331
172217.3449,3.0392973,0,0.52070409,3.5600014
172219.1919,3.040309,0,0.52032238,3.5606313
172221.2751,3.0413396,0,0.51982611,3.5611658
172223.3383,3.0423512,0,0.51942527,3.5617766
172225.4913,3.0434012,0,0.518929,3.5623302
172227.8965,3.0444131,0,0.5184136,3.5628266
172230.3713,3.0454247,0,0.51801282,3.5634375
172232.8643,3.0464554,0,0.51740199,3.5638573
172235.5071,3.0474861,0,0.51694393,3.56443
172238.5307,3.0485358,0,0.51650488,3.5650408
172241.3511,3.0495667,0,0.51574141,3.5653081
172244.397,3.0505974,0,0.51532149,3.5659189
172248.12,3.0516284,0,0.51478702,3.5664153
172250.9768,3.05264,0,0.51404262,3.5666826
172254.9314,3.053709,0,0.5135082,3.5672171
172258.996,3.0547395,0,0.51284015,3.5675797
172262.6692,3.0557513,0,0.5122866,3.568038
172266.8054,3.0567629,0,0.51167578,3.5684388
172271.4732,3.0579274,0,0.51083595,3.5687633
172276.7188,3.0590346,0,0.51011062,3.5691452
172281.8328,3.0600843,0,0.50936621,3.5694506
172287.1848,3.061096,0,0.50869817,3.5697942
172292.5396,3.0621839,0,0.50801104,3.570195
172298.233,3.0631957,0,0.50728571,3.5704813
172304.9164,3.0642073,0,0.50669402,3.5709014
172310.6344,3.065238,0,0.50581598,3.571054
172317.9208,3.0662498,0,0.50520521,3.571455
172324.8816,3.0672615,0,0.50449896,3.5717604
172332.62,3.0682921,0,0.50358278,3.5718749
172340.7382,3.069304,0,0.50299108,3.572295
172349.251,3.0703535,0,0.50215119,3.5725048
172358.5564,3.0714035,0,0.50140679,3.5728102
172368.9764,3.0724151,0,0.50056696,3.5729821
172378.4424,3.0734649,0,0.49987984,3.5733447
172390.1506,3.0744767,0,0.49905908,3.5735357
172401.8818,3.0755265,0,0.49829558,3.573822
172414.8142,3.0765381,0,0.497513,3.5740511
172429.432,3.0775878,0,0.49657774,3.5741656
172445.1654,3.0786188,0,0.49590966,3.5745285
172462.7552,3.0796304,0,0.49489805,3.5745285
172479.9074,3.0806992,0,0.49409637,3.5747955
172499.7674,3.0817301,0,0.49337104,3.5751011
172522.316,3.0827799,0,0.49239761,3.5751774
172547.681,3.0838296,0,0.49159592,3.5754256
172575.5544,3.0848985,0,0.49066064,3.5755591
172603.2378,3.0859485,0,0.48980173,3.5757501
172637.1314,3.0869601,0,0.48882827,3.5757883
172674.4444,3.0879717,0,0.48812205,3.5760937
172715.4718,3.0889833,0,0.48716766,3.5761509
172757.4496,3.090014,0,0.48632783,3.5763419
172810.0434,3.0910447,0,0.48535436,3.5763991
172869.4018,3.0920563,0,0.48441908,3.5764754
172926.6639,3.0930681,0,0.48361742,3.5766854
172986.6639,3.0934496,0,0.48300663,3.5764563
173034.3333,3.0945759,0,0.4823004,3.5768764
173094.3333,3.0947859,0,0.48178503,3.576571
173146.2761,3.0958166,0,0.48115516,3.5769718
173206.2761,3.0960073,0,0.48069707,3.5767045
173260.3019,3.0970192,0,0.48000991,3.577029
173320.3019,3.0970001,0,0.47989538,3.5768955
173355.4319,3.0980117,0,0.47922733,3.577239
173358.0145,3.0970001,0,0.47964725,3.5766473
173365.9861,3.0980308,0,0.47920826,3.577239
173425.9861,3.0981071,0,0.47890285,3.5770099
173485.9861,3.0986226,0,0.47850201,3.5771246
173525.1046,3.0989089,0,0.47825387,3.5771627