Index,Time [s],Voltage [V],Current [A],Negative electrode potential [V],Positive electrode potential [V]
805,20194.53,4.0896,0,0.2542,3.8251
806,20194.57,3.9507,4.99946594,0.2542,3.8251
807,20195.31,3.94,5.00038147,0.1871,3.7441
808,20196.31,3.9344,4.99946594,0.1856,3.7394
809,20197.31,3.9306,5.00038147,0.1845,3.7362
810,20198.31,3.9271,5.00007629,0.184,3.7336
811,20199.31,3.9245,4.99992371,0.1831,3.7316
812,20200.31,3.9222,4.99961853,0.1824,3.7292
813,20201.31,3.9197,5.00022888,0.1818,3.7278
814,20202.31,3.9179,4.99977112,0.1815,3.7266
815,20203.31,3.9162,5.00007629,0.181,3.7252
816,20204.31,3.9144,4.99961853,0.1805,3.7243
817,20205.31,3.9129,4.99977112,0.1799,3.723
818,20206.31,3.9113,5.00038147,0.1794,3.7219
819,20207.31,3.91,4.99977112,0.1791,3.7208
820,20208.31,3.9088,5.00068665,0.1785,3.7198
821,20209.31,3.9075,4.99961853,0.1782,3.719
822,20210.31,3.9063,5.00068665,0.178,3.7184
823,20211.31,3.9052,4.99946594,0.1775,3.7174
824,20212.31,3.904,4.99992371,0.1774,3.7166
825,20213.31,3.9031,5.00038147,0.1769,3.7158
826,20214.31,3.9022,4.99992371,0.1766,3.7154
827,20215.31,3.9011,4.99977112,0.1762,3.7147
828,20216.31,3.9001,4.99992371,0.1761,3.7141
829,20217.31,3.8991,4.99992371,0.1756,3.7133
830,20218.31,3.8982,5.00038147,0.1754,3.7128
831,20219.31,3.8973,5.00038147,0.1751,3.7122
832,20220.31,3.8967,4.99977112,0.1751,3.7115
833,20221.31,3.8959,4.99961853,0.1747,3.7111
834,20222.31,3.8953,5.00022888,0.1742,3.7106
835,20223.31,3.8943,4.99977112,0.174,3.7101
836,20224.31,3.8936,5.00007629,0.1737,3.7096
837,20225.31,3.893,4.99931335,0.1735,3.709
838,20226.31,3.8921,5.00053406,0.1732,3.7088
839,20227.31,3.8914,4.99977112,0.1731,3.7082
840,20228.31,3.8909,5.00053406,0.1729,3.7077
841,20229.31,3.8901,4.99931335,0.1726,3.7074
842,20230.31,3.8894,4.99992371,0.1723,3.7071
843,20231.31,3.8888,4.99977112,0.1723,3.7064
844,20232.31,3.8883,4.99992371,0.1719,3.7063
845,20233.31,3.8877,5.00068665,0.1716,3.7057
846,20234.31,3.8869,5.00007629,0.1716,3.7053
847,20235.31,3.8863,5.00083923,0.1713,3.705
848,20236.31,3.8859,4.99977112,0.1712,3.7047
849,20237.31,3.8853,5.00053406,0.171,3.7044
850,20238.31,3.8851,4.99961853,0.1707,3.7041
851,20239.31,3.8842,5.00068665,0.1704,3.7036
852,20240.31,3.8836,4.99977112,0.1705,3.7034
853,20241.31,3.8831,5.00038147,0.1702,3.7029
854,20242.31,3.8827,4.99946594,0.1702,3.7026
855,20243.31,3.882,5.00007629,0.1699,3.7022
856,20244.31,3.8814,5.00022888,0.1699,3.702
857,20245.31,3.8811,4.99992371,0.1694,3.7015
858,20246.31,3.8807,4.99992371,0.1692,3.7012
859,20247.31,3.8801,4.99992371,0.1689,3.7009
860,20248.31,3.8796,5.00022888,0.1689,3.7004
861,20249.31,3.8791,4.99992371,0.1686,3.7002
862,20250.31,3.8787,4.99961853,0.1686,3.6999
863,20251.31,3.8782,4.99961853,0.1686,3.6998
864,20252.31,3.8778,5.00038147,0.1684,3.6991
865,20253.31,3.8772,5.00053406,0.1683,3.699
866,20254.31,3.8769,5.00007629,0.168,3.6987
867,20255.31,3.8762,4.99992371,0.1678,3.6985
868,20256.31,3.8759,4.99931335,0.1678,3.698
869,20257.31,3.8753,4.99977112,0.1673,3.6979
870,20258.31,3.875,5.00022888,0.1673,3.6975
871,20259.31,3.8747,5.00022888,0.1672,3.6971
872,20260.31,3.8743,4.99992371,0.1673,3.6969
873,20261.31,3.8738,4.99961853,0.1669,3.6967
874,20262.31,3.8735,4.99931335,0.1669,3.6963
875,20263.31,3.8732,4.99977112,0.1667,3.6963
876,20264.31,3.8726,5.00038147,0.1667,3.696
877,20265.31,3.872,5.00022888,0.1665,3.6956
878,20266.31,3.8717,5.00007629,0.1664,3.6953
879,20267.31,3.8714,4.99992371,0.1662,3.695
880,20268.31,3.8709,5.00068665,0.1661,3.6947
881,20269.31,3.8706,5.00038147,0.1661,3.6947
882,20270.31,3.8703,5.00053406,0.1659,3.6944
883,20271.31,3.87,4.99977112,0.1657,3.694
884,20272.31,3.8695,5.00007629,0.1656,3.6939
885,20273.31,3.8692,5.00038147,0.1654,3.6937
886,20274.31,3.8688,5.00022888,0.1654,3.6934
887,20275.31,3.8683,4.99977112,0.1653,3.6932
888,20276.31,3.8682,5.00007629,0.1651,3.6929
889,20277.31,3.8677,5.00022888,0.1651,3.6928
890,20278.31,3.8674,5.00053406,0.1648,3.6925
891,20279.31,3.8668,4.99992371,0.1648,3.6923
892,20280.31,3.8666,4.99961853,0.1646,3.6923
893,20281.31,3.8662,4.99977112,0.1648,3.692
894,20282.31,3.866,4.99977112,0.1645,3.6915
895,20283.31,3.8656,5.00053406,0.1645,3.6913
896,20284.31,3.8653,4.99977112,0.1645,3.691
897,20285.31,3.865,4.99992371,0.1643,3.6909
898,20286.31,3.8648,4.99992371,0.1642,3.6907
899,20287.31,3.8643,5.00007629,0.164,3.6904
900,20288.31,3.8642,5.00053406,0.1638,3.6902
901,20289.31,3.8639,4.99961853,0.1638,3.6899
902,20290.31,3.8634,5.00068665,0.1637,3.6899
903,20291.31,3.8631,4.99946594,0.1635,3.6899
904,20292.31,3.863,5.00053406,0.1635,3.6896
905,20293.31,3.8628,4.99961853,0.1632,3.6893
906,20294.31,3.8625,5.00038147,0.1632,3.6893
907,20295.31,3.8618,4.99961853,0.1632,3.6891
908,20296.31,3.8618,5.00007629,0.163,3.6888
909,20297.31,3.8613,4.99916077,0.163,3.6885
910,20298.31,3.861,5.00022888,0.1629,3.6883
911,20299.31,3.8608,4.99992371,0.1627,3.6882
912,20300.31,3.8605,5.00038147,0.1629,3.6882
913,20301.31,3.8602,4.99946594,0.1627,3.6878
914,20302.31,3.8599,5.00068665,0.1626,3.6875
915,20303.31,3.8596,5.00007629,0.1626,3.6874
916,20304.31,3.8593,5.00038147,0.1624,3.6872
917,20305.31,3.859,4.99931335,0.1622,3.687
918,20306.31,3.8587,4.99961853,0.1622,3.6869
919,20307.31,3.8587,5.00022888,0.1622,3.6867
920,20308.31,3.8582,4.99961853,0.1621,3.6866
921,20309.31,3.8581,5.00038147,0.1619,3.6864
922,20310.31,3.8576,4.99992371,0.1621,3.6861
923,20311.31,3.8576,5.00038147,0.1618,3.6858
924,20312.31,3.8572,4.99946594,0.1619,3.6858
925,20313.31,3.857,4.99992371,0.1616,3.6855
926,20314.31,3.8569,4.99977112,0.1616,3.6853
927,20315.31,3.8564,5.00007629,0.1616,3.6853
928,20316.31,3.8563,4.99977112,0.1613,3.6851
929,20317.31,3.8556,5.00053406,0.1615,3.6848
930,20318.31,3.8553,5.00007629,0.1613,3.6847
931,20319.31,3.8553,5.00022888,0.1611,3.6845
932,20320.31,3.855,4.99992371,0.1611,3.6843
933,20321.31,3.8546,5.00022888,0.161,3.6842
934,20322.31,3.8546,4.99961853,0.1608,3.684
935,20323.31,3.8541,5.00038147,0.1611,3.6839
936,20324.31,3.854,4.99977112,0.1608,3.6837
937,20325.31,3.8537,5.00053406,0.1607,3.6832
938,20326.31,3.8534,4.99961853,0.1608,3.6829
939,20327.31,3.8531,5.00053406,0.1607,3.6831
940,20328.31,3.8531,4.99916077,0.1605,3.6826
941,20329.31,3.8528,5.00038147,0.1603,3.6826
942,20330.31,3.8524,4.99961853,0.1605,3.6824
943,20331.31,3.852,5.00038147,0.1603,3.6824
944,20332.31,3.852,4.99931335,0.1602,3.6821
945,20333.31,3.8517,5.00007629,0.1602,3.682
946,20334.31,3.8514,5.00007629,0.1603,3.6818
947,20335.31,3.8509,4.99961853,0.16,3.6818
948,20336.31,3.8508,5.00022888,0.16,3.6813
949,20337.31,3.8506,5.00007629,0.1597,3.681
950,20338.31,3.8502,5.00022888,0.16,3.681
951,20339.31,3.8502,4.99977112,0.1595,3.6807
952,20340.31,3.8495,5.00038147,0.1599,3.6805
953,20341.31,3.8494,4.99977112,0.1597,3.6805
954,20342.31,3.8491,5.00038147,0.1595,3.6804
955,20343.31,3.8489,5.00007629,0.1595,3.6799
956,20344.31,3.8489,5.00053406,0.1592,3.68
957,20344.53,3.8488,5.00038147,0.1592,3.6799
958,20344.54,3.9806,0,0.1592,3.6799
959,20345.35,3.9911,0,0.2259,3.7546
960,20346.35,3.996,0,0.2271,3.7585
961,20347.35,3.9995,0,0.2279,3.7612
962,20348.35,4.0021,0,0.2286,3.7632
963,20349.35,4.0047,0,0.229,3.7648
964,20350.35,4.0066,0,0.2298,3.7666
965,20351.35,4.0084,0,0.2302,3.7678
966,20352.35,4.0101,0,0.2308,3.769
967,20353.35,4.0114,0,0.2311,3.7707
968,20354.35,4.0131,0,0.2316,3.7715
969,20355.35,4.0145,0,0.2317,3.7725
970,20356.35,4.0157,0,0.2322,3.7734
971,20357.35,4.0168,0,0.2325,3.774
972,20358.35,4.0177,0,0.2329,3.7748
973,20359.35,4.0188,0,0.233,3.7756
974,20360.35,4.02,0,0.2335,3.7764
975,20361.35,4.0208,0,0.2338,3.7769
976,20362.35,4.0217,0,0.234,3.7775
977,20363.35,4.0224,0,0.2343,3.778
978,20364.35,4.0235,0,0.2346,3.7788
979,20365.35,4.0243,0,0.2348,3.7793
980,20366.35,4.025,0,0.2349,3.7798
981,20367.35,4.0258,0,0.2352,3.7804
982,20368.35,4.0264,0,0.2356,3.7807
983,20369.35,4.027,0,0.2357,3.7814
984,20370.35,4.0278,0,0.2357,3.7818
985,20371.35,4.0284,0,0.2362,3.7823
986,20372.35,4.0288,0,0.2364,3.7826
987,20373.35,4.0296,0,0.2365,3.7831
988,20374.35,4.0301,0,0.2367,3.7836
989,20375.35,4.031,0,0.2367,3.7839
990,20376.35,4.0313,0,0.2372,3.7842
991,20377.35,4.0319,0,0.2372,3.7847
992,20378.35,4.0323,0,0.2375,3.785
993,20379.35,4.033,0,0.2376,3.7855
994,20380.35,4.0336,0,0.2376,3.7857
995,20381.35,4.034,0,0.238,3.7863
996,20382.35,4.0343,0,0.2383,3.7864
997,20383.35,4.0349,0,0.2381,3.7866
998,20384.35,4.0354,0,0.2383,3.7871
999,20385.35,4.036,0,0.2386,3.7876
1000,20386.35,4.0362,0,0.2387,3.7876
1001,20387.35,4.0368,0,0.2387,3.7879
1002,20388.35,4.0374,0,0.2387,3.788
1003,20389.35,4.0378,0,0.2389,3.7887
1004,20390.35,4.0381,0,0.2391,3.789
1005,20391.35,4.0386,0,0.2394,3.7892
1006,20392.35,4.0391,0,0.2395,3.7892
1007,20393.35,4.0392,0,0.2397,3.7898
1008,20394.35,4.0395,0,0.2397,3.7901
1009,20395.35,4.0398,0,0.2397,3.7901
1010,20396.35,4.0404,0,0.2399,3.7903
1011,20397.35,4.0407,0,0.2402,3.7907
1012,20398.35,4.0409,0,0.2402,3.7909
1013,20399.35,4.0414,0,0.2402,3.7911
1014,20400.35,4.0417,0,0.2403,3.7915
1015,20401.35,4.042,0,0.2408,3.7915
1016,20402.35,4.0423,0,0.2407,3.7917
1017,20403.35,4.0426,0,0.2408,3.7922
1018,20404.35,4.0429,0,0.2407,3.7922
1019,20404.53,4.043,0,0.2408,3.7923
1020,20404.54,4.0436,0,0.2408,3.7923
1021,20445.55,4.0537,0,0.244,3.7995
1022,20505.55,4.0629,0,0.2465,3.8063
1023,20565.55,4.0671,0,0.2478,3.8094
1024,20625.55,4.069,0,0.2488,3.8103
1025,20685.55,4.0697,0,0.2488,3.8109
1026,20745.55,4.07,0,0.2491,3.8109
1027,20805.55,4.0706,0,0.2496,3.8111
1028,20865.55,4.0713,0,0.2499,3.8111
1029,20925.55,4.0713,0,0.25,3.8111
1030,20985.55,4.0714,0,0.2504,3.8109
1031,21045.55,4.0717,0,0.2505,3.8109
1032,21105.55,4.0717,0,0.2504,3.8108
1033,21165.55,4.0719,0,0.251,3.8106
1034,21225.55,4.0719,0,0.2512,3.8106
1035,21285.55,4.0722,0,0.251,3.8108
1036,21345.55,4.0722,0,0.2513,3.8106
1037,21405.55,4.0722,0,0.2515,3.8105
1038,21465.55,4.0722,0,0.2518,3.8105
1039,21525.55,4.0722,0,0.2516,3.8101
1040,21585.55,4.0723,0,0.2521,3.8103
1041,21645.55,4.0725,0,0.2518,3.8101
1042,21705.55,4.0723,0,0.2523,3.8101
1043,21765.55,4.0726,0,0.2523,3.81
1044,21825.55,4.0723,0,0.2524,3.81
1045,21885.55,4.0726,0,0.2524,3.8098
1046,21945.55,4.0726,0,0.2524,3.8098
1047,22005.55,4.0726,0,0.2526,3.8097
1048,22065.55,4.0726,0,0.2527,3.8097
1049,22125.55,4.0726,0,0.2527,3.8095
1050,22185.55,4.0726,0,0.2527,3.8098
1051,22245.55,4.0728,0,0.2529,3.8095
1052,22305.55,4.0728,0,0.2531,3.8094
1053,22365.55,4.0728,0,0.2532,3.8094
1054,22425.55,4.0729,0,0.2534,3.8094
1055,22485.55,4.0728,0,0.2532,3.809
1056,22545.55,4.0729,0,0.2534,3.809
1057,22605.55,4.0729,0,0.2532,3.809
1058,22665.55,4.0726,0,0.2535,3.8089
1059,22725.55,4.0731,0,0.2537,3.8092
1060,22785.55,4.0728,0,0.2535,3.8087
1061,22845.55,4.0728,0,0.2539,3.8089
1062,22905.55,4.0731,0,0.2539,3.8087
1063,22965.55,4.0728,0,0.254,3.8089
1064,23025.55,4.0729,0,0.2539,3.8089
1065,23085.55,4.0729,0,0.254,3.8086
1066,23145.55,4.0729,0,0.254,3.8087
1067,23205.55,4.0729,0,0.254,3.8084
1068,23265.55,4.0731,0,0.2542,3.8087
1069,23325.55,4.0731,0,0.2543,3.8084
1070,23385.55,4.0729,0,0.2543,3.8084
1071,23445.55,4.0729,0,0.2545,3.8084
1072,23505.55,4.0731,0,0.2543,3.8082
1073,23565.55,4.0731,0,0.2545,3.8082
1074,23625.55,4.0731,0,0.2547,3.8082
1075,23685.55,4.0731,0,0.2548,3.8084
1076,23745.55,4.0732,0,0.2547,3.8081
1077,23805.55,4.0731,0,0.2547,3.8082
1078,23865.55,4.0732,0,0.2547,3.8079
1079,23925.55,4.0731,0,0.2548,3.8081